Time (s), Raw Data By Channel
-0.711906, -3.006740E-2, 1.409125E+0, 1.409541E+0, 1.401143E+0, 1.407543E+0, 1.400355E+0, 1.409035E+0, 1.394620E+0
-0.710906, -4.027000E-2, 1.409125E+0, 1.409541E+0, 1.401143E+0, 1.407543E+0, 1.400355E+0, 1.398833E+0, 1.404839E+0
-0.709906, -4.027000E-2, 1.409125E+0, 1.399338E+0, 1.401143E+0, 1.407543E+0, 1.400355E+0, 1.398833E+0, 1.404839E+0
-0.708906, -1.986479E-2, 1.398929E+0, 1.399338E+0, 1.401143E+0, 1.407543E+0, 1.400355E+0, 1.409035E+0, 1.404839E+0
-0.707906, 1.074301E-2, 1.398929E+0, 1.399338E+0, 1.401143E+0, 1.407543E+0, 1.400355E+0, 1.409035E+0, 1.404839E+0
-0.706906, 4.135082E-2, 1.398929E+0, 1.399338E+0, 1.401143E+0, 1.407543E+0, 1.400355E+0, 1.409035E+0, 1.404839E+0
-0.705906, 7.195862E-2, 1.398929E+0, 1.399338E+0, 1.401143E+0, 1.407543E+0, 1.400355E+0, 1.409035E+0, 1.404839E+0
-0.704906, 1.025664E-1, 1.398929E+0, 1.399338E+0, 1.401143E+0, 1.407543E+0, 1.400355E+0, 1.409035E+0, 1.404839E+0
-0.703906, 1.127690E-1, 1.409125E+0, 1.399338E+0, 1.401143E+0, 1.407543E+0, 1.400355E+0, 1.398833E+0, 1.404839E+0
-0.702906, 1.127690E-1, 1.398929E+0, 1.409541E+0, 1.401143E+0, 1.407543E+0, 1.400355E+0, 1.409035E+0, 1.404839E+0
-0.701906, 1.127690E-1, 1.398929E+0, 1.399338E+0, 1.401143E+0, 1.407543E+0, 1.400355E+0, 1.398833E+0, 1.404839E+0
-0.700906, 1.127690E-1, 1.409125E+0, 1.409541E+0, 1.401143E+0, 1.397342E+0, 1.410555E+0, 1.409035E+0, 1.404839E+0
-0.699906, 1.025664E-1, 1.409125E+0, 1.409541E+0, 1.401143E+0, 1.407543E+0, 1.400355E+0, 1.409035E+0, 1.404839E+0
-0.698906, 8.216122E-2, 1.409125E+0, 1.399338E+0, 1.401143E+0, 1.397342E+0, 1.400355E+0, 1.409035E+0, 1.404839E+0
-0.697906, 6.175602E-2, 1.398929E+0, 1.399338E+0, 1.401143E+0, 1.407543E+0, 1.400355E+0, 1.409035E+0, 1.404839E+0
-0.696906, 3.114822E-2, 1.398929E+0, 1.399338E+0, 1.401143E+0, 1.407543E+0, 1.400355E+0, 1.398833E+0, 1.404839E+0
-0.695906, 5.404097E-4, 1.398929E+0, 1.409541E+0, 1.401143E+0, 1.407543E+0, 1.400355E+0, 1.409035E+0, 1.404839E+0
-0.694906, -3.006740E-2, 1.409125E+0, 1.399338E+0, 1.401143E+0, 1.407543E+0, 1.400355E+0, 1.409035E+0, 1.404839E+0
-0.693906, -4.027000E-2, 1.398929E+0, 1.399338E+0, 1.401143E+0, 1.407543E+0, 1.400355E+0, 1.409035E+0, 1.404839E+0
-0.692906, -4.027000E-2, 1.398929E+0, 1.399338E+0, 1.401143E+0, 1.407543E+0, 1.400355E+0, 1.409035E+0, 1.404839E+0
-0.691906, -1.986479E-2, 1.398929E+0, 1.399338E+0, 1.401143E+0, 1.407543E+0, 1.400355E+0, 1.398833E+0, 1.394620E+0
-0.690906, 1.074301E-2, 1.398929E+0, 1.399338E+0, 1.401143E+0, 1.407543E+0, 1.400355E+0, 1.398833E+0, 1.404839E+0
-0.689906, 4.135082E-2, 1.398929E+0, 1.409541E+0, 1.401143E+0, 1.407543E+0, 1.400355E+0, 1.409035E+0, 1.404839E+0
-0.688906, 7.195862E-2, 1.398929E+0, 1.399338E+0, 1.401143E+0, 1.407543E+0, 1.400355E+0, 1.409035E+0, 1.404839E+0
-0.687906, 1.025664E-1, 1.409125E+0, 1.409541E+0, 1.411340E+0, 1.397342E+0, 1.400355E+0, 1.409035E+0, 1.404839E+0
-0.686906, 1.127690E-1, 1.409125E+0, 1.399338E+0, 1.401143E+0, 1.407543E+0, 1.400355E+0, 1.409035E+0, 1.394620E+0
-0.685906, 1.127690E-1, 1.409125E+0, 1.399338E+0, 1.411340E+0, 1.407543E+0, 1.400355E+0, 1.409035E+0, 1.404839E+0
-0.684906, 1.127690E-1, 1.398929E+0, 1.399338E+0, 1.401143E+0, 1.407543E+0, 1.400355E+0, 1.398833E+0, 1.404839E+0
-0.683906, 1.025664E-1, 1.398929E+0, 1.409541E+0, 1.401143E+0, 1.397342E+0, 1.400355E+0, 1.409035E+0, 1.404839E+0
-0.682906, 9.236383E-2, 1.398929E+0, 1.399338E+0, 1.401143E+0, 1.397342E+0, 1.400355E+0, 1.409035E+0, 1.404839E+0
-0.681906, 7.195862E-2, 1.409125E+0, 1.399338E+0, 1.401143E+0, 1.407543E+0, 1.400355E+0, 1.409035E+0, 1.404839E+0
-0.680906, 5.155342E-2, 1.409125E+0, 1.399338E+0, 1.401143E+0, 1.407543E+0, 1.400355E+0, 1.398833E+0, 1.404839E+0
-0.679906, 1.074301E-2, 1.409125E+0, 1.399338E+0, 1.401143E+0, 1.407543E+0, 1.400355E+0, 1.409035E+0, 1.404839E+0
, , , , , , , , 
-0.678906, -9.662192E-3, 1.398929E+0, 1.409541E+0, 1.401143E+0, 1.407543E+0, 1.400355E+0, 1.409035E+0, 1.404839E+0
-0.677906, -4.027000E-2, 1.409125E+0, 1.399338E+0, 1.401143E+0, 1.407543E+0, 1.400355E+0, 1.409035E+0, 1.404839E+0
-0.676906, -5.047260E-2, 1.398929E+0, 1.399338E+0, 1.411340E+0, 1.397342E+0, 1.400355E+0, 1.409035E+0, 1.404839E+0
-0.675906, -4.027000E-2, 1.409125E+0, 1.409541E+0, 1.401143E+0, 1.407543E+0, 1.400355E+0, 1.398833E+0, 1.404839E+0
-0.674906, -1.986479E-2, 1.409125E+0, 1.399338E+0, 1.401143E+0, 1.397342E+0, 1.400355E+0, 1.398833E+0, 1.404839E+0
-0.673906, 3.114822E-2, 1.398929E+0, 1.399338E+0, 1.401143E+0, 1.407543E+0, 1.400355E+0, 1.409035E+0, 1.404839E+0
-0.672906, 6.175602E-2, 1.398929E+0, 1.399338E+0, 1.401143E+0, 1.407543E+0, 1.400355E+0, 1.409035E+0, 1.404839E+0
-0.671906, 8.216122E-2, 1.398929E+0, 1.409541E+0, 1.401143E+0, 1.407543E+0, 1.400355E+0, 1.409035E+0, 1.404839E+0
-0.670906, 1.025664E-1, 1.398929E+0, 1.399338E+0, 1.401143E+0, 1.407543E+0, 1.400355E+0, 1.409035E+0, 1.404839E+0
-0.669906, 1.127690E-1, 1.398929E+0, 1.409541E+0, 1.401143E+0, 1.407543E+0, 1.400355E+0, 1.409035E+0, 1.404839E+0
-0.668906, 1.127690E-1, 1.409125E+0, 1.399338E+0, 1.401143E+0, 1.407543E+0, 1.400355E+0, 1.409035E+0, 1.404839E+0
-0.667906, 1.127690E-1, 1.398929E+0, 1.399338E+0, 1.401143E+0, 1.407543E+0, 1.400355E+0, 1.409035E+0, 1.404839E+0
-0.666906, 1.025664E-1, 1.398929E+0, 1.409541E+0, 1.401143E+0, 1.407543E+0, 1.400355E+0, 1.398833E+0, 1.404839E+0
-0.665906, 8.216122E-2, 1.398929E+0, 1.399338E+0, 1.411340E+0, 1.407543E+0, 1.400355E+0, 1.398833E+0, 1.404839E+0
-0.664906, 6.175602E-2, 1.398929E+0, 1.409541E+0, 1.411340E+0, 1.407543E+0, 1.400355E+0, 1.398833E+0, 1.404839E+0
-0.663906, 3.114822E-2, 1.409125E+0, 1.409541E+0, 1.401143E+0, 1.397342E+0, 1.400355E+0, 1.398833E+0, 1.404839E+0
-0.662906, 5.404097E-4, 1.409125E+0, 1.399338E+0, 1.401143E+0, 1.407543E+0, 1.400355E+0, 1.398833E+0, 1.404839E+0
-0.661906, -3.006740E-2, 1.398929E+0, 1.399338E+0, 1.411340E+0, 1.397342E+0, 1.400355E+0, 1.398833E+0, 1.404839E+0
-0.660906, -4.027000E-2, 1.398929E+0, 1.399338E+0, 1.411340E+0, 1.407543E+0, 1.400355E+0, 1.409035E+0, 1.404839E+0
-0.659906, -5.047260E-2, 1.398929E+0, 1.399338E+0, 1.401143E+0, 1.407543E+0, 1.400355E+0, 1.398833E+0, 1.404839E+0
-0.658906, -3.006740E-2, 1.398929E+0, 1.409541E+0, 1.401143E+0, 1.407543E+0, 1.400355E+0, 1.398833E+0, 1.404839E+0
-0.657906, 1.074301E-2, 1.398929E+0, 1.399338E+0, 1.401143E+0, 1.397342E+0, 1.400355E+0, 1.409035E+0, 1.404839E+0
-0.656906, 4.135082E-2, 1.398929E+0, 1.409541E+0, 1.401143E+0, 1.397342E+0, 1.400355E+0, 1.409035E+0, 1.404839E+0
-0.655906, 7.195862E-2, 1.409125E+0, 1.399338E+0, 1.401143E+0, 1.407543E+0, 1.400355E+0, 1.398833E+0, 1.404839E+0
-0.654906, 1.025664E-1, 1.409125E+0, 1.399338E+0, 1.411340E+0, 1.407543E+0, 1.410555E+0, 1.409035E+0, 1.404839E+0
-0.653906, 1.127690E-1, 1.398929E+0, 1.409541E+0, 1.401143E+0, 1.407543E+0, 1.400355E+0, 1.409035E+0, 1.404839E+0
-0.652906, 1.229716E-1, 1.409125E+0, 1.399338E+0, 1.401143E+0, 1.407543E+0, 1.400355E+0, 1.409035E+0, 1.404839E+0
-0.651906, 1.127690E-1, 1.409125E+0, 1.409541E+0, 1.401143E+0, 1.407543E+0, 1.400355E+0, 1.409035E+0, 1.404839E+0
-0.650906, 1.127690E-1, 1.409125E+0, 1.409541E+0, 1.401143E+0, 1.407543E+0, 1.410555E+0, 1.409035E+0, 1.404839E+0
-0.649906, 1.025664E-1, 1.409125E+0, 1.399338E+0, 1.401143E+0, 1.407543E+0, 1.400355E+0, 1.409035E+0, 1.404839E+0
-0.648906, 8.216122E-2, 1.398929E+0, 1.399338E+0, 1.411340E+0, 1.397342E+0, 1.400355E+0, 1.409035E+0, 1.404839E+0
-0.647906, 6.175602E-2, 1.398929E+0, 1.399338E+0, 1.401143E+0, 1.407543E+0, 1.400355E+0, 1.409035E+0, 1.394620E+0
-0.646906, 3.114822E-2, 1.409125E+0, 1.399338E+0, 1.401143E+0, 1.407543E+0, 1.400355E+0, 1.398833E+0, 1.404839E+0
, , , , , , , , 
-0.645906, 5.404097E-4, 1.398929E+0, 1.399338E+0, 1.401143E+0, 1.407543E+0, 1.400355E+0, 1.409035E+0, 1.404839E+0
-0.644906, -3.006740E-2, 1.398929E+0, 1.409541E+0, 1.401143E+0, 1.407543E+0, 1.410555E+0, 1.409035E+0, 1.404839E+0
-0.643906, -5.047260E-2, 1.398929E+0, 1.399338E+0, 1.401143E+0, 1.407543E+0, 1.400355E+0, 1.409035E+0, 1.404839E+0
-0.642906, -4.027000E-2, 1.398929E+0, 1.399338E+0, 1.401143E+0, 1.407543E+0, 1.400355E+0, 1.409035E+0, 1.404839E+0
-0.641906, -1.986479E-2, 1.398929E+0, 1.409541E+0, 1.411340E+0, 1.407543E+0, 1.400355E+0, 1.409035E+0, 1.404839E+0
-0.640906, 2.094561E-2, 1.398929E+0, 1.399338E+0, 1.401143E+0, 1.407543E+0, 1.400355E+0, 1.409035E+0, 1.404839E+0
-0.639906, 5.155342E-2, 1.409125E+0, 1.399338E+0, 1.411340E+0, 1.407543E+0, 1.400355E+0, 1.409035E+0, 1.394620E+0
-0.638906, 8.216122E-2, 1.398929E+0, 1.409541E+0, 1.401143E+0, 1.407543E+0, 1.400355E+0, 1.409035E+0, 1.404839E+0
-0.637906, 1.025664E-1, 1.409125E+0, 1.399338E+0, 1.411340E+0, 1.407543E+0, 1.400355E+0, 1.409035E+0, 1.404839E+0
-0.636906, 1.127690E-1, 1.409125E+0, 1.399338E+0, 1.401143E+0, 1.397342E+0, 1.400355E+0, 1.409035E+0, 1.404839E+0
-0.635906, 1.229716E-1, 1.398929E+0, 1.399338E+0, 1.401143E+0, 1.407543E+0, 1.400355E+0, 1.409035E+0, 1.404839E+0
-0.634906, 1.127690E-1, 1.398929E+0, 1.409541E+0, 1.401143E+0, 1.407543E+0, 1.400355E+0, 1.409035E+0, 1.404839E+0
-0.633906, 1.025664E-1, 1.409125E+0, 1.399338E+0, 1.401143E+0, 1.407543E+0, 1.400355E+0, 1.398833E+0, 1.404839E+0
-0.632906, 9.236383E-2, 1.398929E+0, 1.399338E+0, 1.401143E+0, 1.397342E+0, 1.400355E+0, 1.398833E+0, 1.404839E+0
-0.631906, 8.216122E-2, 1.398929E+0, 1.399338E+0, 1.401143E+0, 1.407543E+0, 1.400355E+0, 1.398833E+0, 1.404839E+0
-0.630906, 5.155342E-2, 1.398929E+0, 1.399338E+0, 1.401143E+0, 1.407543E+0, 1.400355E+0, 1.409035E+0, 1.404839E+0
-0.629906, 2.094561E-2, 1.398929E+0, 1.399338E+0, 1.401143E+0, 1.407543E+0, 1.400355E+0, 1.398833E+0, 1.394620E+0
-0.628906, -9.662192E-3, 1.398929E+0, 1.399338E+0, 1.401143E+0, 1.407543E+0, 1.400355E+0, 1.409035E+0, 1.404839E+0
-0.627906, -3.006740E-2, 1.398929E+0, 1.409541E+0, 1.411340E+0, 1.407543E+0, 1.410555E+0, 1.409035E+0, 1.404839E+0
-0.626906, -4.027000E-2, 1.409125E+0, 1.409541E+0, 1.401143E+0, 1.407543E+0, 1.400355E+0, 1.409035E+0, 1.404839E+0
-0.625906, -3.006740E-2, 1.409125E+0, 1.399338E+0, 1.401143E+0, 1.407543E+0, 1.400355E+0, 1.409035E+0, 1.394620E+0
-0.624906, -9.662192E-3, 1.409125E+0, 1.399338E+0, 1.401143E+0, 1.407543E+0, 1.400355E+0, 1.409035E+0, 1.404839E+0
-0.623906, 3.114822E-2, 1.398929E+0, 1.399338E+0, 1.401143E+0, 1.397342E+0, 1.400355E+0, 1.398833E+0, 1.404839E+0
-0.622906, 6.175602E-2, 1.398929E+0, 1.399338E+0, 1.411340E+0, 1.407543E+0, 1.400355E+0, 1.398833E+0, 1.404839E+0
-0.621906, 9.236383E-2, 1.398929E+0, 1.399338E+0, 1.401143E+0, 1.407543E+0, 1.400355E+0, 1.398833E+0, 1.404839E+0
-0.620906, 1.025664E-1, 1.398929E+0, 1.399338E+0, 1.401143E+0, 1.407543E+0, 1.400355E+0, 1.409035E+0, 1.404839E+0
-0.619906, 1.127690E-1, 1.398929E+0, 1.409541E+0, 1.401143E+0, 1.407543E+0, 1.400355E+0, 1.398833E+0, 1.394620E+0
-0.618906, 1.127690E-1, 1.398929E+0, 1.399338E+0, 1.401143E+0, 1.407543E+0, 1.400355E+0, 1.409035E+0, 1.404839E+0
-0.617906, 1.127690E-1, 1.398929E+0, 1.399338E+0, 1.401143E+0, 1.407543E+0, 1.400355E+0, 1.409035E+0, 1.394620E+0
-0.616906, 1.025664E-1, 1.398929E+0, 1.399338E+0, 1.411340E+0, 1.407543E+0, 1.400355E+0, 1.409035E+0, 1.404839E+0
-0.615906, 8.216122E-2, 1.409125E+0, 1.399338E+0, 1.401143E+0, 1.407543E+0, 1.400355E+0, 1.409035E+0, 1.404839E+0
-0.614906, 6.175602E-2, 1.398929E+0, 1.409541E+0, 1.411340E+0, 1.407543E+0, 1.400355E+0, 1.409035E+0, 1.404839E+0
-0.613906, 4.135082E-2, 1.409125E+0, 1.409541E+0, 1.401143E+0, 1.407543E+0, 1.400355E+0, 1.398833E+0, 1.404839E+0
, , , , , , , , 
-0.612906, 5.404097E-4, 1.409125E+0, 1.399338E+0, 1.411340E+0, 1.407543E+0, 1.400355E+0, 1.409035E+0, 1.404839E+0
-0.611906, -1.986479E-2, 1.409125E+0, 1.399338E+0, 1.401143E+0, 1.407543E+0, 1.400355E+0, 1.409035E+0, 1.404839E+0
-0.610906, -3.006740E-2, 1.398929E+0, 1.399338E+0, 1.411340E+0, 1.407543E+0, 1.400355E+0, 1.398833E+0, 1.404839E+0
-0.609906, -4.027000E-2, 1.398929E+0, 1.399338E+0, 1.401143E+0, 1.407543E+0, 1.400355E+0, 1.409035E+0, 1.404839E+0
-0.608906, -1.986479E-2, 1.398929E+0, 1.399338E+0, 1.401143E+0, 1.397342E+0, 1.400355E+0, 1.409035E+0, 1.404839E+0
-0.607906, 1.074301E-2, 1.409125E+0, 1.399338E+0, 1.401143E+0, 1.397342E+0, 1.400355E+0, 1.398833E+0, 1.404839E+0
-0.606906, 4.135082E-2, 1.409125E+0, 1.399338E+0, 1.401143E+0, 1.407543E+0, 1.400355E+0, 1.409035E+0, 1.404839E+0
-0.605906, 7.195862E-2, 1.398929E+0, 1.399338E+0, 1.401143E+0, 1.407543E+0, 1.400355E+0, 1.409035E+0, 1.404839E+0
-0.604906, 9.236383E-2, 1.409125E+0, 1.409541E+0, 1.401143E+0, 1.407543E+0, 1.400355E+0, 1.398833E+0, 1.404839E+0
-0.603906, 1.127690E-1, 1.409125E+0, 1.409541E+0, 1.401143E+0, 1.407543E+0, 1.400355E+0, 1.409035E+0, 1.404839E+0
-0.602906, 1.229716E-1, 1.398929E+0, 1.409541E+0, 1.401143E+0, 1.397342E+0, 1.400355E+0, 1.398833E+0, 1.404839E+0
-0.601906, 1.127690E-1, 1.409125E+0, 1.409541E+0, 1.401143E+0, 1.407543E+0, 1.400355E+0, 1.409035E+0, 1.404839E+0
-0.600906, 1.127690E-1, 1.409125E+0, 1.409541E+0, 1.401143E+0, 1.407543E+0, 1.400355E+0, 1.409035E+0, 1.404839E+0
-0.599906, 1.025664E-1, 1.398929E+0, 1.399338E+0, 1.401143E+0, 1.407543E+0, 1.400355E+0, 1.409035E+0, 1.404839E+0
-0.598906, 8.216122E-2, 1.409125E+0, 1.409541E+0, 1.401143E+0, 1.407543E+0, 1.400355E+0, 1.398833E+0, 1.404839E+0
-0.597906, 5.155342E-2, 1.398929E+0, 1.399338E+0, 1.401143E+0, 1.407543E+0, 1.400355E+0, 1.409035E+0, 1.404839E+0
-0.596906, 2.094561E-2, 1.398929E+0, 1.399338E+0, 1.401143E+0, 1.407543E+0, 1.400355E+0, 1.409035E+0, 1.404839E+0
-0.595906, 5.404097E-4, 1.398929E+0, 1.399338E+0, 1.401143E+0, 1.397342E+0, 1.400355E+0, 1.398833E+0, 1.394620E+0
-0.594906, -4.027000E-2, 1.398929E+0, 1.399338E+0, 1.401143E+0, 1.407543E+0, 1.400355E+0, 1.398833E+0, 1.404839E+0
-0.593906, -4.027000E-2, 1.398929E+0, 1.399338E+0, 1.411340E+0, 1.407543E+0, 1.400355E+0, 1.398833E+0, 1.404839E+0
-0.592906, -4.027000E-2, 1.398929E+0, 1.399338E+0, 1.401143E+0, 1.407543E+0, 1.410555E+0, 1.398833E+0, 1.404839E+0
-0.591906, -1.986479E-2, 1.398929E+0, 1.409541E+0, 1.411340E+0, 1.407543E+0, 1.410555E+0, 1.398833E+0, 1.404839E+0
-0.590906, 2.094561E-2, 1.409125E+0, 1.409541E+0, 1.401143E+0, 1.407543E+0, 1.400355E+0, 1.398833E+0, 1.404839E+0
-0.589906, 5.155342E-2, 1.409125E+0, 1.399338E+0, 1.401143E+0, 1.407543E+0, 1.410555E+0, 1.409035E+0, 1.404839E+0
-0.588906, 8.216122E-2, 1.409125E+0, 1.409541E+0, 1.401143E+0, 1.407543E+0, 1.400355E+0, 1.409035E+0, 1.404839E+0
-0.587906, 9.236383E-2, 1.398929E+0, 1.409541E+0, 1.401143E+0, 1.397342E+0, 1.410555E+0, 1.398833E+0, 1.404839E+0
-0.586906, 1.127690E-1, 1.398929E+0, 1.399338E+0, 1.401143E+0, 1.407543E+0, 1.400355E+0, 1.409035E+0, 1.404839E+0
-0.585906, 1.127690E-1, 1.398929E+0, 1.399338E+0, 1.401143E+0, 1.407543E+0, 1.400355E+0, 1.409035E+0, 1.404839E+0
-0.584906, 1.127690E-1, 1.409125E+0, 1.399338E+0, 1.401143E+0, 1.407543E+0, 1.400355E+0, 1.409035E+0, 1.404839E+0
-0.583906, 1.025664E-1, 1.409125E+0, 1.399338E+0, 1.401143E+0, 1.397342E+0, 1.400355E+0, 1.409035E+0, 1.394620E+0
-0.582906, 9.236383E-2, 1.398929E+0, 1.399338E+0, 1.401143E+0, 1.407543E+0, 1.410555E+0, 1.398833E+0, 1.404839E+0
-0.581906, 7.195862E-2, 1.398929E+0, 1.399338E+0, 1.401143E+0, 1.407543E+0, 1.400355E+0, 1.398833E+0, 1.404839E+0
-0.580906, 4.135082E-2, 1.409125E+0, 1.399338E+0, 1.401143E+0, 1.407543E+0, 1.400355E+0, 1.409035E+0, 1.404839E+0
, , , , , , , , 
-0.579906, 1.074301E-2, 1.409125E+0, 1.409541E+0, 1.401143E+0, 1.407543E+0, 1.410555E+0, 1.409035E+0, 1.404839E+0
-0.578906, -1.986479E-2, 1.409125E+0, 1.409541E+0, 1.411340E+0, 1.397342E+0, 1.400355E+0, 1.409035E+0, 1.404839E+0
-0.577906, -4.027000E-2, 1.398929E+0, 1.409541E+0, 1.401143E+0, 1.397342E+0, 1.400355E+0, 1.409035E+0, 1.404839E+0
-0.576906, -4.027000E-2, 1.409125E+0, 1.399338E+0, 1.401143E+0, 1.407543E+0, 1.400355E+0, 1.409035E+0, 1.404839E+0
-0.575906, -4.027000E-2, 1.398929E+0, 1.399338E+0, 1.401143E+0, 1.407543E+0, 1.400355E+0, 1.409035E+0, 1.404839E+0
-0.574906, -9.662192E-3, 1.398929E+0, 1.399338E+0, 1.401143E+0, 1.407543E+0, 1.400355E+0, 1.409035E+0, 1.404839E+0
-0.573906, 3.114822E-2, 1.398929E+0, 1.399338E+0, 1.401143E+0, 1.407543E+0, 1.400355E+0, 1.398833E+0, 1.404839E+0
-0.572906, 6.175602E-2, 1.398929E+0, 1.409541E+0, 1.401143E+0, 1.407543E+0, 1.400355E+0, 1.398833E+0, 1.404839E+0
-0.571906, 9.236383E-2, 1.409125E+0, 1.399338E+0, 1.411340E+0, 1.407543E+0, 1.400355E+0, 1.398833E+0, 1.404839E+0
-0.570906, 1.025664E-1, 1.398929E+0, 1.409541E+0, 1.401143E+0, 1.407543E+0, 1.400355E+0, 1.409035E+0, 1.404839E+0
-0.569906, 1.127690E-1, 1.398929E+0, 1.399338E+0, 1.401143E+0, 1.407543E+0, 1.400355E+0, 1.409035E+0, 1.404839E+0
-0.568906, 1.127690E-1, 1.398929E+0, 1.399338E+0, 1.401143E+0, 1.407543E+0, 1.400355E+0, 1.398833E+0, 1.404839E+0
-0.567906, 1.127690E-1, 1.409125E+0, 1.399338E+0, 1.411340E+0, 1.407543E+0, 1.400355E+0, 1.409035E+0, 1.404839E+0
-0.566906, 9.236383E-2, 1.409125E+0, 1.409541E+0, 1.401143E+0, 1.397342E+0, 1.410555E+0, 1.409035E+0, 1.404839E+0
-0.565906, 8.216122E-2, 1.409125E+0, 1.409541E+0, 1.401143E+0, 1.407543E+0, 1.400355E+0, 1.409035E+0, 1.404839E+0
-0.564906, 6.175602E-2, 1.409125E+0, 1.399338E+0, 1.401143E+0, 1.407543E+0, 1.400355E+0, 1.409035E+0, 1.404839E+0
-0.563906, 4.135082E-2, 1.398929E+0, 1.399338E+0, 1.401143E+0, 1.407543E+0, 1.400355E+0, 1.409035E+0, 1.404839E+0
-0.562906, 5.404097E-4, 1.398929E+0, 1.399338E+0, 1.411340E+0, 1.407543E+0, 1.400355E+0, 1.409035E+0, 1.404839E+0
-0.561906, -1.986479E-2, 1.398929E+0, 1.399338E+0, 1.401143E+0, 1.407543E+0, 1.400355E+0, 1.398833E+0, 1.404839E+0
-0.560906, -5.047260E-2, 1.398929E+0, 1.409541E+0, 1.401143E+0, 1.407543E+0, 1.400355E+0, 1.409035E+0, 1.404839E+0
-0.559906, -4.027000E-2, 1.409125E+0, 1.399338E+0, 1.401143E+0, 1.407543E+0, 1.400355E+0, 1.409035E+0, 1.404839E+0
-0.558906, -3.006740E-2, 1.398929E+0, 1.399338E+0, 1.401143E+0, 1.407543E+0, 1.400355E+0, 1.409035E+0, 1.404839E+0
-0.557906, 5.404097E-4, 1.398929E+0, 1.409541E+0, 1.401143E+0, 1.407543E+0, 1.400355E+0, 1.409035E+0, 1.404839E+0
-0.556906, 4.135082E-2, 1.398929E+0, 1.399338E+0, 1.401143E+0, 1.407543E+0, 1.400355E+0, 1.409035E+0, 1.404839E+0
-0.555906, 7.195862E-2, 1.398929E+0, 1.399338E+0, 1.401143E+0, 1.407543E+0, 1.400355E+0, 1.398833E+0, 1.404839E+0
-0.554906, 9.236383E-2, 1.398929E+0, 1.409541E+0, 1.411340E+0, 1.407543E+0, 1.400355E+0, 1.409035E+0, 1.404839E+0
-0.553906, 1.025664E-1, 1.398929E+0, 1.409541E+0, 1.401143E+0, 1.407543E+0, 1.400355E+0, 1.398833E+0, 1.404839E+0
-0.552906, 1.127690E-1, 1.409125E+0, 1.399338E+0, 1.401143E+0, 1.407543E+0, 1.400355E+0, 1.398833E+0, 1.404839E+0
-0.551906, 1.127690E-1, 1.409125E+0, 1.399338E+0, 1.401143E+0, 1.407543E+0, 1.400355E+0, 1.409035E+0, 1.404839E+0
-0.550906, 1.127690E-1, 1.409125E+0, 1.399338E+0, 1.401143E+0, 1.407543E+0, 1.410555E+0, 1.398833E+0, 1.404839E+0
-0.549906, 1.025664E-1, 1.409125E+0, 1.399338E+0, 1.401143E+0, 1.407543E+0, 1.410555E+0, 1.409035E+0, 1.404839E+0
-0.548906, 7.195862E-2, 1.398929E+0, 1.409541E+0, 1.401143E+0, 1.397342E+0, 1.400355E+0, 1.409035E+0, 1.404839E+0
-0.547906, 6.175602E-2, 1.398929E+0, 1.409541E+0, 1.401143E+0, 1.407543E+0, 1.400355E+0, 1.398833E+0, 1.404839E+0
, , , , , , , , 
-0.546906, 2.094561E-2, 1.398929E+0, 1.409541E+0, 1.401143E+0, 1.407543E+0, 1.400355E+0, 1.409035E+0, 1.404839E+0
-0.545906, 5.404097E-4, 1.398929E+0, 1.399338E+0, 1.401143E+0, 1.407543E+0, 1.400355E+0, 1.409035E+0, 1.404839E+0
-0.544906, -3.006740E-2, 1.398929E+0, 1.399338E+0, 1.401143E+0, 1.407543E+0, 1.400355E+0, 1.409035E+0, 1.404839E+0
-0.543906, -5.047260E-2, 1.398929E+0, 1.399338E+0, 1.411340E+0, 1.407543E+0, 1.410555E+0, 1.409035E+0, 1.404839E+0
-0.542906, -4.027000E-2, 1.398929E+0, 1.399338E+0, 1.411340E+0, 1.407543E+0, 1.400355E+0, 1.398833E+0, 1.404839E+0
-0.541906, -1.986479E-2, 1.409125E+0, 1.399338E+0, 1.401143E+0, 1.407543E+0, 1.400355E+0, 1.398833E+0, 1.404839E+0
-0.540906, 2.094561E-2, 1.409125E+0, 1.409541E+0, 1.401143E+0, 1.407543E+0, 1.400355E+0, 1.398833E+0, 1.404839E+0
-0.539906, 5.155342E-2, 1.409125E+0, 1.399338E+0, 1.401143E+0, 1.407543E+0, 1.400355E+0, 1.398833E+0, 1.404839E+0
-0.538906, 8.216122E-2, 1.398929E+0, 1.399338E+0, 1.401143E+0, 1.407543E+0, 1.400355E+0, 1.409035E+0, 1.404839E+0
