Parameters: 	Upper Cutoff:  500	Lower Cutoff: 0	Sample Rate (Hz): 1000	Frames Per Second30	Display Window Size (S)400	MVC Window Size (s): 400	Seconds To Acquire MVC: 3	Display Channel: 0
waveform	[0]	[1]	[2]	[3]	[4]	[5]	[6]	[7]
t0	10/19/2017  17:42:42.647868	10/19/2017  17:42:42.647868	10/19/2017  17:42:42.647868	10/19/2017  17:42:42.647868	10/19/2017  17:42:42.647868	10/19/2017  17:42:42.647868	10/19/2017  17:42:42.647868	10/19/2017  17:42:42.647868
delta t	0.001000	0.001000	0.001000	0.001000	0.001000	0.001000	0.001000	0.001000

time	Y[0]	Y[1]	Y[2]	Y[3]	Y[4]	Y[5]	Y[6]	Y[7]
10/19/2017  17:42:42.618041	-1.013660E+0	1.319332E-2	2.155331E-2	-1.014651E+1	1.712873E-2	1.946206E-2	7.714242E-2	2.401527E-2
10/19/2017  17:42:42.619041	4.543147E+0	5.561801E-3	1.391770E-2	-1.013378E+1	1.712873E-2	1.691808E-2	7.205661E-2	3.164702E-2
10/19/2017  17:42:42.620041	3.259438E+0	1.828100E-2	8.827299E-3	-1.013378E+1	2.987847E-2	2.709402E-2	6.951371E-2	2.910311E-2
10/19/2017  17:42:42.621041	-7.467505E-1	1.573716E-2	2.155331E-2	-1.013632E+1	2.222863E-2	1.946206E-2	8.222822E-2	2.910311E-2
10/19/2017  17:42:42.622041	-1.285654E+0	5.561801E-3	2.155331E-2	-1.014142E+1	2.222863E-2	1.691808E-2	7.205661E-2	3.673486E-2
10/19/2017  17:42:42.623041	1.040274E+0	1.828100E-2	1.137250E-2	-1.014651E+1	2.477858E-2	2.709402E-2	7.459952E-2	2.401527E-2
10/19/2017  17:42:42.624041	1.759946E-1	1.319332E-2	1.646291E-2	-1.013632E+1	1.457878E-2	1.946206E-2	8.731403E-2	3.164702E-2
10/19/2017  17:42:42.625041	7.174401E-1	1.064948E-2	2.409852E-2	-1.013632E+1	1.967868E-2	1.691808E-2	7.459952E-2	4.436661E-2
10/19/2017  17:42:42.626041	2.471419E+0	1.319332E-2	1.137250E-2	-1.011596E+1	2.222863E-2	2.963800E-2	7.459952E-2	2.910311E-2
10/19/2017  17:42:42.627041	-2.086383E+0	2.591253E-2	1.900811E-2	-1.014142E+1	1.202884E-2	2.709402E-2	7.714242E-2	3.164702E-2
10/19/2017  17:42:42.628041	1.124447E-1	5.561801E-3	1.646291E-2	-1.014396E+1	1.967868E-2	6.742135E-3	7.205661E-2	3.164702E-2
10/19/2017  17:42:42.629041	-9.984083E-1	5.561801E-3	1.391770E-2	-1.013632E+1	2.222863E-2	2.963800E-2	7.714242E-2	3.164702E-2
10/19/2017  17:42:42.630041	9.157160E-1	8.105642E-3	1.391770E-2	-1.013632E+1	1.967868E-2	2.200605E-2	8.477112E-2	2.910311E-2
10/19/2017  17:42:42.631041	2.987444E+0	5.561801E-3	6.282096E-3	-1.013123E+1	2.222863E-2	9.286120E-3	7.459952E-2	3.927877E-2
10/19/2017  17:42:42.632041	-3.781896E+0	1.064948E-2	1.137250E-2	-1.014905E+1	2.732853E-2	1.946206E-2	5.934210E-2	2.655919E-2
10/19/2017  17:42:42.633041	-4.925795E+0	2.082484E-2	3.936974E-2	-1.015669E+1	1.457878E-2	1.946206E-2	8.222822E-2	3.164702E-2
10/19/2017  17:42:42.634041	-2.188063E+0	1.319332E-2	2.155331E-2	-1.013123E+1	2.222863E-2	1.437409E-2	7.714242E-2	3.673486E-2
10/19/2017  17:42:42.635041	1.818125E+0	1.064948E-2	1.137250E-2	-1.013887E+1	3.497837E-2	1.946206E-2	6.442791E-2	3.419094E-2
10/19/2017  17:42:42.636041	-1.550022E+0	3.100021E-2	2.664372E-2	-1.013887E+1	1.457878E-2	2.963800E-2	7.714242E-2	2.910311E-2
10/19/2017  17:42:42.637041	2.041821E+0	5.561801E-3	2.155331E-2	-1.012359E+1	2.477858E-2	1.691808E-2	7.459952E-2	3.164702E-2
10/19/2017  17:42:42.638041	1.807957E+0	2.845637E-2	1.391770E-2	-1.013632E+1	1.967868E-2	1.946206E-2	6.951371E-2	3.164702E-2
10/19/2017  17:42:42.639041	8.222774E-3	1.064948E-2	2.409852E-2	-1.014142E+1	2.222863E-2	1.946206E-2	7.205661E-2	3.673486E-2
10/19/2017  17:42:42.640041	-2.053050E-1	-7.157401E-3	1.900811E-2	-1.013123E+1	9.478889E-3	1.691808E-2	6.951371E-2	3.419094E-2
10/19/2017  17:42:42.641041	-1.700000E+0	1.319332E-2	6.282096E-3	-1.014651E+1	2.987847E-2	2.709402E-2	7.205661E-2	2.401527E-2
10/19/2017  17:42:42.642041	6.767682E-1	1.828100E-2	2.155331E-2	-1.014651E+1	2.987847E-2	2.963800E-2	8.222822E-2	3.927877E-2
10/19/2017  17:42:42.643041	3.434836E+0	5.561801E-3	2.155331E-2	-1.011596E+1	1.967868E-2	1.946206E-2	7.459952E-2	2.910311E-2
10/19/2017  17:42:42.644041	1.040274E+0	1.064948E-2	1.137250E-2	-1.013632E+1	1.712873E-2	1.946206E-2	6.951371E-2	4.182269E-2
10/19/2017  17:42:42.645041	-2.002497E+0	1.064948E-2	1.391770E-2	-1.014651E+1	1.967868E-2	1.691808E-2	8.222822E-2	3.164702E-2
10/19/2017  17:42:42.646041	-1.006034E+0	5.561801E-3	2.155331E-2	-1.014142E+1	2.222863E-2	1.691808E-2	7.459952E-2	4.436661E-2
10/19/2017  17:42:42.647041	-9.068964E-1	1.828100E-2	1.137250E-2	-1.013632E+1	2.987847E-2	3.218199E-2	7.205661E-2	2.147136E-2
10/19/2017  17:42:42.648041	-8.662244E-1	1.319332E-2	1.900811E-2	-1.013887E+1	1.967868E-2	1.691808E-2	8.222822E-2	2.401527E-2
10/19/2017  17:42:42.649041	1.022767E-1	5.561801E-3	1.137250E-2	-1.013378E+1	2.732853E-2	2.709402E-2	6.188501E-2	3.164702E-2
10/19/2017  17:42:42.650041	-1.361914E+0	1.064948E-2	1.646291E-2	-1.014142E+1	1.967868E-2	2.963800E-2	7.205661E-2	3.164702E-2
								
10/19/2017  17:42:42.651041	-4.620468E-1	1.828100E-2	2.918892E-2	-1.013887E+1	1.967868E-2	1.437409E-2	7.714242E-2	3.673486E-2
10/19/2017  17:42:42.652041	3.742704E-1	1.573716E-2	2.664372E-2	-1.013632E+1	3.752832E-2	2.455003E-2	6.951371E-2	3.164702E-2
10/19/2017  17:42:42.653041	7.403181E-1	1.828100E-2	1.391770E-2	-1.014396E+1	1.712873E-2	2.963800E-2	7.205661E-2	2.401527E-2
10/19/2017  17:42:42.654041	-2.078470E-1	8.105642E-3	1.137250E-2	-1.012614E+1	1.967868E-2	1.946206E-2	8.222822E-2	3.673486E-2
10/19/2017  17:42:42.655041	5.522103E-1	2.082484E-2	1.391770E-2	-1.013632E+1	2.987847E-2	1.946206E-2	6.951371E-2	3.164702E-2
10/19/2017  17:42:42.656041	4.329619E+0	1.828100E-2	2.155331E-2	-1.014142E+1	2.477858E-2	1.183011E-2	7.205661E-2	3.164702E-2
10/19/2017  17:42:42.657041	-6.298186E-1	1.828100E-2	1.900811E-2	-1.012614E+1	1.457878E-2	2.455003E-2	7.205661E-2	3.164702E-2
10/19/2017  17:42:42.658041	-2.439721E+0	1.319332E-2	1.137250E-2	-1.013887E+1	2.732853E-2	9.286120E-3	6.951371E-2	2.147136E-2
10/19/2017  17:42:42.659041	-5.611847E-1	8.105642E-3	2.155331E-2	-1.016178E+1	1.712873E-2	2.963800E-2	7.968532E-2	2.147136E-2
10/19/2017  17:42:42.660041	4.512643E+0	1.319332E-2	2.155331E-2	-1.013632E+1	2.222863E-2	1.183011E-2	7.459952E-2	3.927877E-2
10/19/2017  17:42:42.661041	4.980370E+0	1.064948E-2	1.137250E-2	-1.012105E+1	4.007827E-2	1.946206E-2	7.205661E-2	3.419094E-2
10/19/2017  17:42:42.662041	-2.452431E+0	1.828100E-2	1.137250E-2	-1.014651E+1	1.967868E-2	2.455003E-2	6.697081E-2	3.164702E-2
10/19/2017  17:42:42.663041	-4.946131E+0	8.105642E-3	1.391770E-2	-1.014142E+1	6.928941E-3	1.437409E-2	7.459952E-2	4.182269E-2
10/19/2017  17:42:42.664041	-1.666954E+0	5.561801E-3	1.900811E-2	-1.013632E+1	2.987847E-2	1.437409E-2	6.951371E-2	2.910311E-2
10/19/2017  17:42:42.665041	3.905105E+0	2.082484E-2	1.646291E-2	-1.013887E+1	2.477858E-2	2.455003E-2	7.968532E-2	2.655919E-2
10/19/2017  17:42:42.666041	2.219761E+0	1.064948E-2	2.155331E-2	-1.013887E+1	1.712873E-2	2.200605E-2	7.205661E-2	2.910311E-2
10/19/2017  17:42:42.667041	4.657537E+0	4.741205E-4	1.646291E-2	-1.013378E+1	1.967868E-2	1.437409E-2	7.205661E-2	2.910311E-2
10/19/2017  17:42:42.668041	-3.255702E+0	1.319332E-2	1.137250E-2	-1.015924E+1	1.967868E-2	9.286120E-3	6.442791E-2	3.164702E-2
10/19/2017  17:42:42.669041	-2.780349E+0	1.828100E-2	1.900811E-2	-1.014396E+1	1.967868E-2	2.963800E-2	7.968532E-2	3.164702E-2
10/19/2017  17:42:42.670041	1.668147E+0	5.561801E-3	2.409852E-2	-1.013378E+1	1.712873E-2	1.946206E-2	6.951371E-2	3.927877E-2
10/19/2017  17:42:42.671041	1.843545E+0	5.561801E-3	8.827299E-3	-1.012869E+1	2.477858E-2	1.946206E-2	6.697081E-2	2.910311E-2
10/19/2017  17:42:42.672041	7.326921E-1	2.082484E-2	2.155331E-2	-1.014142E+1	2.477858E-2	2.709402E-2	7.459952E-2	2.910311E-2
10/19/2017  17:42:42.673041	-2.180437E+0	1.573716E-2	4.191494E-2	-1.013632E+1	2.477858E-2	2.963800E-2	8.222822E-2	3.673486E-2
10/19/2017  17:42:42.674041	-2.815937E+0	1.319332E-2	1.900811E-2	-1.014142E+1	2.222863E-2	1.691808E-2	6.951371E-2	3.673486E-2
10/19/2017  17:42:42.675041	-1.366998E+0	1.319332E-2	1.137250E-2	-1.014651E+1	3.497837E-2	1.437409E-2	6.951371E-2	2.147136E-2
10/19/2017  17:42:42.676041	2.471706E-1	8.105642E-3	1.900811E-2	-1.014905E+1	1.967868E-2	2.963800E-2	6.951371E-2	2.147136E-2
10/19/2017  17:42:42.677041	1.322436E+0	3.017961E-3	2.918892E-2	-1.013378E+1	1.457878E-2	1.946206E-2	7.968532E-2	2.910311E-2
10/19/2017  17:42:42.678041	8.242040E-1	1.828100E-2	1.900811E-2	-1.012614E+1	2.732853E-2	1.691808E-2	7.714242E-2	2.655919E-2
10/19/2017  17:42:42.679041	7.177272E-2	5.561801E-3	1.137250E-2	-1.013378E+1	2.732853E-2	1.437409E-2	6.697081E-2	3.164702E-2
10/19/2017  17:42:42.680041	2.222303E+0	2.082484E-2	1.391770E-2	-1.015160E+1	2.222863E-2	2.709402E-2	6.442791E-2	2.401527E-2
10/19/2017  17:42:42.681041	2.192086E-1	1.064948E-2	2.155331E-2	-1.013632E+1	1.457878E-2	2.455003E-2	8.222822E-2	3.164702E-2
10/19/2017  17:42:42.682041	-2.167727E+0	5.561801E-3	1.900811E-2	-1.013123E+1	3.752832E-2	1.437409E-2	7.714242E-2	3.927877E-2
10/19/2017  17:42:42.683041	1.327807E-1	1.573716E-2	1.391770E-2	-1.013887E+1	2.987847E-2	1.946206E-2	6.442791E-2	2.655919E-2
								
10/19/2017  17:42:42.684041	-1.183974E+0	1.064948E-2	1.391770E-2	-1.014396E+1	2.477858E-2	2.709402E-2	7.459952E-2	2.655919E-2
10/19/2017  17:42:42.685041	-7.620025E-1	1.064948E-2	1.137250E-2	-1.015160E+1	2.477858E-2	1.691808E-2	7.968532E-2	3.164702E-2
10/19/2017  17:42:42.686041	-1.021286E+0	1.573716E-2	1.646291E-2	-1.013378E+1	2.222863E-2	1.691808E-2	7.459952E-2	4.436661E-2
10/19/2017  17:42:42.687041	1.251547E-1	1.319332E-2	1.900811E-2	-1.012359E+1	2.477858E-2	2.709402E-2	7.205661E-2	2.910311E-2
10/19/2017  17:42:42.688041	-1.501724E+0	1.064948E-2	1.646291E-2	-1.013378E+1	2.477858E-2	2.455003E-2	7.205661E-2	2.401527E-2
10/19/2017  17:42:42.689041	-1.315871E-1	1.064948E-2	1.900811E-2	-1.014651E+1	2.222863E-2	4.198150E-3	7.714242E-2	3.673486E-2
10/19/2017  17:42:42.690041	3.500928E+0	8.105642E-3	1.900811E-2	-1.013632E+1	2.732853E-2	2.455003E-2	6.951371E-2	3.164702E-2
10/19/2017  17:42:42.691041	5.010874E+0	2.336868E-2	1.646291E-2	-1.013123E+1	1.202884E-2	2.963800E-2	8.731403E-2	2.147136E-2
10/19/2017  17:42:42.692041	4.370291E+0	2.336868E-2	3.173413E-2	-1.012614E+1	2.477858E-2	9.286120E-3	7.968532E-2	3.419094E-2
10/19/2017  17:42:42.693041	-3.718346E+0	-2.069720E-3	8.827299E-3	-1.013632E+1	1.967868E-2	1.691808E-2	5.934210E-2	3.419094E-2
10/19/2017  17:42:42.694041	-4.938505E+0	2.082484E-2	1.137250E-2	-1.014905E+1	1.712873E-2	9.286120E-3	7.205661E-2	2.401527E-2
10/19/2017  17:42:42.695041	-4.890207E+0	1.319332E-2	2.409852E-2	-1.016178E+1	1.712873E-2	2.963800E-2	7.968532E-2	3.164702E-2
10/19/2017  17:42:42.696041	8.623340E-1	5.561801E-3	2.664372E-2	-1.014142E+1	1.457878E-2	9.286120E-3	7.968532E-2	3.673486E-2
10/19/2017  17:42:42.697041	4.995622E+0	4.741205E-4	1.137250E-2	-1.011341E+1	2.987847E-2	1.691808E-2	6.951371E-2	3.164702E-2
10/19/2017  17:42:42.698041	2.184173E+0	1.828100E-2	8.827299E-3	-1.013632E+1	2.987847E-2	3.981394E-2	7.205661E-2	2.147136E-2
10/19/2017  17:42:42.699041	3.963571E+0	1.319332E-2	2.409852E-2	-1.014905E+1	2.477858E-2	2.709402E-2	8.222822E-2	2.655919E-2
10/19/2017  17:42:42.700041	-3.374889E-1	4.741205E-4	2.664372E-2	-1.013887E+1	1.457878E-2	2.455003E-2	7.714242E-2	3.673486E-2
10/19/2017  17:42:42.701041	-3.446352E+0	5.561801E-3	1.137250E-2	-1.012614E+1	3.242842E-2	1.437409E-2	6.697081E-2	4.182269E-2
10/19/2017  17:42:42.702041	-2.937953E+0	2.082484E-2	1.137250E-2	-1.015924E+1	2.477858E-2	2.709402E-2	6.697081E-2	2.147136E-2
10/19/2017  17:42:42.703041	-2.030459E+0	1.828100E-2	2.664372E-2	-1.014651E+1	1.457878E-2	2.200605E-2	7.968532E-2	3.164702E-2
10/19/2017  17:42:42.704041	1.101282E+0	8.105642E-3	1.900811E-2	-1.012359E+1	2.477858E-2	1.691808E-2	7.205661E-2	4.182269E-2
10/19/2017  17:42:42.705041	1.022480E+0	1.064948E-2	8.827299E-3	-1.013887E+1	2.732853E-2	2.963800E-2	7.459952E-2	2.147136E-2
10/19/2017  17:42:42.706041	-1.339036E+0	1.828100E-2	1.646291E-2	-1.015924E+1	2.477858E-2	1.946206E-2	6.951371E-2	3.164702E-2
10/19/2017  17:42:42.707041	-1.135676E+0	5.561801E-3	2.155331E-2	-1.013887E+1	2.477858E-2	2.455003E-2	7.968532E-2	1.638352E-2
10/19/2017  17:42:42.708041	-8.583114E-2	8.105642E-3	1.900811E-2	-1.011850E+1	2.477858E-2	2.963800E-2	7.459952E-2	2.910311E-2
10/19/2017  17:42:42.709041	-9.755303E-1	1.319332E-2	1.646291E-2	-1.014142E+1	2.987847E-2	1.946206E-2	6.697081E-2	2.401527E-2
10/19/2017  17:42:42.710041	-1.733046E+0	1.064948E-2	2.155331E-2	-1.014651E+1	1.457878E-2	1.946206E-2	7.205661E-2	2.910311E-2
10/19/2017  17:42:42.711041	1.408864E+0	-4.613560E-3	8.827299E-3	-1.013378E+1	1.967868E-2	1.183011E-2	7.459952E-2	3.673486E-2
10/19/2017  17:42:42.712041	3.628027E+0	1.319332E-2	1.137250E-2	-1.013378E+1	2.732853E-2	1.946206E-2	8.222822E-2	3.164702E-2
10/19/2017  17:42:42.713041	4.878690E+0	1.828100E-2	2.664372E-2	-1.013123E+1	2.222863E-2	1.691808E-2	7.205661E-2	2.910311E-2
10/19/2017  17:42:42.714041	1.988726E-1	1.064948E-2	1.900811E-2	-1.012869E+1	1.967868E-2	1.946206E-2	6.188501E-2	3.673486E-2
10/19/2017  17:42:42.715041	6.668872E-2	1.064948E-2	1.391770E-2	-1.013887E+1	1.967868E-2	2.455003E-2	7.459952E-2	2.655919E-2
10/19/2017  17:42:42.716041	1.868965E+0	5.561801E-3	1.646291E-2	-1.014651E+1	2.222863E-2	2.200605E-2	7.714242E-2	2.401527E-2
								
10/19/2017  17:42:42.717041	-5.205127E-1	1.064948E-2	1.646291E-2	-1.013887E+1	2.222863E-2	3.726996E-2	7.968532E-2	4.182269E-2
10/19/2017  17:42:42.718041	-1.961825E+0	2.591253E-2	1.646291E-2	-1.013378E+1	2.222863E-2	1.691808E-2	7.459952E-2	3.419094E-2
10/19/2017  17:42:42.719041	-3.085388E+0	1.064948E-2	1.137250E-2	-1.014651E+1	2.987847E-2	2.455003E-2	7.205661E-2	2.655919E-2
10/19/2017  17:42:42.720041	-4.704641E+0	1.064948E-2	1.900811E-2	-1.015924E+1	2.477858E-2	2.709402E-2	7.205661E-2	2.910311E-2
10/19/2017  17:42:42.721041	5.069340E+0	1.319332E-2	2.409852E-2	-1.013632E+1	1.457878E-2	2.200605E-2	7.968532E-2	3.164702E-2
10/19/2017  17:42:42.722041	4.502475E+0	8.105642E-3	1.391770E-2	-1.011850E+1	1.712873E-2	1.183011E-2	7.459952E-2	3.164702E-2
10/19/2017  17:42:42.723041	4.352784E-1	1.064948E-2	8.827299E-3	-1.014651E+1	2.987847E-2	1.691808E-2	6.951371E-2	3.164702E-2
10/19/2017  17:42:42.724041	-5.154288E-1	1.319332E-2	2.155331E-2	-1.014905E+1	1.202884E-2	2.963800E-2	6.697081E-2	3.673486E-2
10/19/2017  17:42:42.725041	-1.270402E+0	1.828100E-2	2.155331E-2	-1.014142E+1	1.457878E-2	2.455003E-2	8.477112E-2	3.419094E-2
10/19/2017  17:42:42.726041	-1.933863E+0	8.105642E-3	2.155331E-2	-1.013887E+1	2.222863E-2	1.437409E-2	7.205661E-2	5.199836E-2
10/19/2017  17:42:42.727041	-2.432095E+0	1.573716E-2	1.900811E-2	-1.012359E+1	2.732853E-2	2.200605E-2	6.951371E-2	2.401527E-2
10/19/2017  17:42:42.728041	-1.201768E+0	1.573716E-2	1.391770E-2	-1.014905E+1	1.712873E-2	1.946206E-2	7.205661E-2	2.147136E-2
10/19/2017  17:42:42.729041	-1.079752E+0	5.561801E-3	2.409852E-2	-1.011850E+1	1.457878E-2	1.946206E-2	8.731403E-2	3.673486E-2
10/19/2017  17:42:42.730041	1.014854E+0	8.105642E-3	3.736893E-3	-1.013632E+1	2.222863E-2	1.437409E-2	6.442791E-2	3.419094E-2
10/19/2017  17:42:42.731041	5.827143E-1	1.828100E-2	1.137250E-2	-1.015669E+1	2.477858E-2	1.946206E-2	6.697081E-2	2.147136E-2
10/19/2017  17:42:42.732041	5.089963E-1	1.573716E-2	2.664372E-2	-1.014142E+1	9.478889E-3	1.691808E-2	7.968532E-2	2.401527E-2
10/19/2017  17:42:42.733041	-2.137223E+0	1.064948E-2	2.155331E-2	-1.013632E+1	1.457878E-2	1.691808E-2	6.951371E-2	3.927877E-2
10/19/2017  17:42:42.734041	-2.241445E+0	8.105642E-3	2.664372E-2	-1.013887E+1	1.457878E-2	2.963800E-2	6.442791E-2	3.419094E-2
10/19/2017  17:42:42.735041	5.598363E-1	2.336868E-2	1.646291E-2	-1.014142E+1	2.222863E-2	2.709402E-2	7.459952E-2	2.655919E-2
10/19/2017  17:42:42.736041	3.869517E+0	1.573716E-2	2.155331E-2	-1.013632E+1	2.732853E-2	6.742135E-3	8.222822E-2	3.419094E-2
10/19/2017  17:42:42.737041	6.615162E-1	4.741205E-4	8.827299E-3	-1.013123E+1	3.242842E-2	1.437409E-2	6.951371E-2	2.910311E-2
10/19/2017  17:42:42.738041	-2.650707E+0	1.828100E-2	8.827299E-3	-1.013887E+1	2.987847E-2	2.455003E-2	7.205661E-2	2.910311E-2
10/19/2017  17:42:42.739041	2.029111E+0	3.863173E-2	2.155331E-2	-1.015415E+1	1.202884E-2	1.946206E-2	8.222822E-2	2.910311E-2
10/19/2017  17:42:42.740041	2.224845E+0	8.105642E-3	1.900811E-2	-1.013887E+1	2.222863E-2	1.437409E-2	7.205661E-2	4.182269E-2
10/19/2017  17:42:42.741041	8.216620E-1	4.741205E-4	1.137250E-2	-1.014396E+1	1.712873E-2	1.946206E-2	6.697081E-2	3.164702E-2
10/19/2017  17:42:42.742041	2.789168E+0	2.082484E-2	1.900811E-2	-1.014142E+1	2.732853E-2	2.963800E-2	7.205661E-2	3.164702E-2
10/19/2017  17:42:42.743041	8.852120E-1	1.573716E-2	2.155331E-2	-1.013887E+1	2.732853E-2	1.946206E-2	8.222822E-2	3.673486E-2
10/19/2017  17:42:42.744041	-4.610587E+0	8.105642E-3	2.155331E-2	-1.013887E+1	2.222863E-2	1.183011E-2	6.951371E-2	3.164702E-2
10/19/2017  17:42:42.745041	-1.384792E+0	1.064948E-2	1.137250E-2	-1.014142E+1	2.222863E-2	1.946206E-2	6.188501E-2	2.401527E-2
10/19/2017  17:42:42.746041	-7.213306E-1	1.828100E-2	1.646291E-2	-1.014651E+1	1.457878E-2	2.709402E-2	7.714242E-2	2.910311E-2
10/19/2017  17:42:42.747041	-8.583114E-2	1.319332E-2	1.391770E-2	-1.013887E+1	1.712873E-2	2.200605E-2	7.205661E-2	4.945444E-2
10/19/2017  17:42:42.748041	8.953800E-1	1.064948E-2	1.900811E-2	-1.011341E+1	2.732853E-2	1.946206E-2	6.188501E-2	3.419094E-2
10/19/2017  17:42:42.749041	2.751325E-1	1.573716E-2	8.827299E-3	-1.014396E+1	2.987847E-2	2.709402E-2	6.951371E-2	1.383961E-2
								
10/19/2017  17:42:42.750041	1.378647E-1	1.319332E-2	2.664372E-2	-1.015669E+1	1.457878E-2	6.742135E-3	7.714242E-2	3.164702E-2
10/19/2017  17:42:42.751041	6.233862E-1	5.561801E-3	1.900811E-2	-1.013123E+1	1.967868E-2	1.691808E-2	7.459952E-2	3.673486E-2
10/19/2017  17:42:42.752041	-8.230105E-1	1.573716E-2	1.137250E-2	-1.015160E+1	2.987847E-2	1.946206E-2	7.714242E-2	3.419094E-2
10/19/2017  17:42:42.753041	1.902011E+0	3.100021E-2	2.409852E-2	-1.013887E+1	2.222863E-2	1.437409E-2	7.205661E-2	3.164702E-2
10/19/2017  17:42:42.754041	1.609681E+0	1.064948E-2	2.664372E-2	-1.014142E+1	1.967868E-2	2.200605E-2	7.205661E-2	2.910311E-2
10/19/2017  17:42:42.755041	2.954685E-1	8.105642E-3	1.646291E-2	-1.014142E+1	1.712873E-2	2.709402E-2	7.459952E-2	3.419094E-2
10/19/2017  17:42:42.756041	-2.078470E-1	1.828100E-2	1.900811E-2	-1.013887E+1	2.222863E-2	2.455003E-2	7.205661E-2	2.401527E-2
10/19/2017  17:42:42.757041	1.861626E-1	8.105642E-3	2.664372E-2	-1.013632E+1	1.712873E-2	3.472597E-2	7.459952E-2	3.164702E-2
10/19/2017  17:42:42.758041	-4.646175E+0	5.561801E-3	1.391770E-2	-1.013378E+1	1.457878E-2	1.437409E-2	6.951371E-2	3.164702E-2
10/19/2017  17:42:42.759041	-4.892749E+0	1.064948E-2	1.900811E-2	-1.015415E+1	2.222863E-2	1.946206E-2	7.459952E-2	1.892744E-2
10/19/2017  17:42:42.760041	4.891400E+0	2.591253E-2	1.900811E-2	-1.013632E+1	1.457878E-2	1.946206E-2	6.951371E-2	3.164702E-2
10/19/2017  17:42:42.761041	5.010874E+0	1.319332E-2	1.900811E-2	-1.012869E+1	2.222863E-2	1.437409E-2	7.205661E-2	3.673486E-2
10/19/2017  17:42:42.762041	-3.603669E-1	8.105642E-3	8.827299E-3	-1.012869E+1	1.712873E-2	1.946206E-2	6.697081E-2	2.147136E-2
10/19/2017  17:42:42.763041	4.855812E+0	2.082484E-2	1.646291E-2	-1.013887E+1	2.477858E-2	2.963800E-2	7.968532E-2	2.401527E-2
10/19/2017  17:42:42.764041	-4.117439E+0	1.064948E-2	2.409852E-2	-1.014142E+1	2.477858E-2	1.437409E-2	7.459952E-2	3.673486E-2
10/19/2017  17:42:42.765041	2.659526E+0	1.064948E-2	1.137250E-2	-1.011850E+1	2.477858E-2	1.691808E-2	6.697081E-2	3.164702E-2
10/19/2017  17:42:42.766041	4.095755E+0	1.828100E-2	1.646291E-2	-1.014142E+1	1.712873E-2	2.455003E-2	7.714242E-2	1.638352E-2
10/19/2017  17:42:42.767041	1.919805E+0	1.319332E-2	1.646291E-2	-1.012359E+1	1.457878E-2	1.946206E-2	7.459952E-2	3.164702E-2
10/19/2017  17:42:42.768041	-4.900088E-1	4.741205E-4	1.646291E-2	-1.013378E+1	2.477858E-2	9.286120E-3	6.951371E-2	3.164702E-2
10/19/2017  17:42:42.769041	-4.918169E+0	2.082484E-2	1.646291E-2	-1.013632E+1	2.987847E-2	3.472597E-2	6.951371E-2	2.401527E-2
10/19/2017  17:42:42.770041	-7.772545E-1	2.336868E-2	1.900811E-2	-1.014905E+1	1.457878E-2	2.709402E-2	7.968532E-2	3.164702E-2
10/19/2017  17:42:42.771041	-6.882846E-1	5.561801E-3	2.918892E-2	-1.015669E+1	2.222863E-2	9.286120E-3	6.951371E-2	3.673486E-2
10/19/2017  17:42:42.772041	-8.433465E-1	8.105642E-3	2.409852E-2	-1.013378E+1	2.477858E-2	2.963800E-2	6.697081E-2	3.164702E-2
10/19/2017  17:42:42.773041	-1.217020E+0	2.082484E-2	1.900811E-2	-1.014142E+1	2.222863E-2	2.963800E-2	8.731403E-2	2.655919E-2
10/19/2017  17:42:42.774041	-1.555106E+0	2.082484E-2	3.173413E-2	-1.014142E+1	2.222863E-2	2.200605E-2	7.714242E-2	3.164702E-2
10/19/2017  17:42:42.775041	-2.048253E+0	3.017961E-3	1.646291E-2	-1.013632E+1	1.967868E-2	1.691808E-2	7.459952E-2	3.673486E-2
10/19/2017  17:42:42.776041	1.149580E+0	1.064948E-2	-1.353514E-3	-1.013887E+1	1.967868E-2	1.183011E-2	6.697081E-2	2.401527E-2
10/19/2017  17:42:42.777041	1.660521E+0	1.573716E-2	2.155331E-2	-1.013123E+1	1.967868E-2	2.200605E-2	7.205661E-2	3.164702E-2
10/19/2017  17:42:42.778041	3.836471E+0	1.064948E-2	1.900811E-2	-1.013123E+1	2.987847E-2	2.200605E-2	7.459952E-2	4.182269E-2
10/19/2017  17:42:42.779041	4.942240E+0	3.017961E-3	1.137250E-2	-1.012869E+1	2.222863E-2	1.946206E-2	6.697081E-2	2.655919E-2
10/19/2017  17:42:42.780041	-4.015760E+0	1.828100E-2	2.664372E-2	-1.014142E+1	2.222863E-2	1.183011E-2	7.968532E-2	2.147136E-2
10/19/2017  17:42:42.781041	-4.658885E+0	2.336868E-2	2.155331E-2	-1.014142E+1	1.457878E-2	1.691808E-2	7.968532E-2	3.927877E-2
10/19/2017  17:42:42.782041	-4.933421E+0	5.561801E-3	1.646291E-2	-1.013887E+1	2.987847E-2	1.437409E-2	7.714242E-2	3.419094E-2
								
10/19/2017  17:42:42.783041	-3.837820E+0	1.573716E-2	1.900811E-2	-1.013632E+1	2.222863E-2	2.455003E-2	7.459952E-2	2.147136E-2
10/19/2017  17:42:42.784041	-2.124513E+0	1.319332E-2	2.155331E-2	-1.014396E+1	1.457878E-2	1.946206E-2	7.714242E-2	3.164702E-2
10/19/2017  17:42:42.785041	-6.145667E-1	5.561801E-3	1.900811E-2	-1.013123E+1	1.202884E-2	1.691808E-2	6.697081E-2	3.419094E-2
10/19/2017  17:42:42.786041	-2.841070E-1	1.319332E-2	8.827299E-3	-1.014396E+1	2.477858E-2	2.963800E-2	6.697081E-2	2.655919E-2
10/19/2017  17:42:42.787041	7.276081E-1	2.336868E-2	2.664372E-2	-1.014651E+1	1.712873E-2	2.963800E-2	7.968532E-2	2.655919E-2
10/19/2017  17:42:42.788041	2.364655E+0	8.105642E-3	2.664372E-2	-1.013123E+1	1.457878E-2	1.183011E-2	7.205661E-2	3.927877E-2
10/19/2017  17:42:42.789041	1.523253E+0	1.064948E-2	1.391770E-2	-1.012869E+1	2.987847E-2	2.200605E-2	6.697081E-2	3.164702E-2
10/19/2017  17:42:42.790041	1.858797E+0	1.828100E-2	1.900811E-2	-1.012614E+1	2.477858E-2	2.709402E-2	7.968532E-2	2.147136E-2
10/19/2017  17:42:42.791041	-3.527409E-1	1.573716E-2	3.427933E-2	-1.014651E+1	2.222863E-2	1.946206E-2	7.459952E-2	2.910311E-2
10/19/2017  17:42:42.792041	-1.453426E+0	1.064948E-2	1.900811E-2	-1.014396E+1	1.712873E-2	1.946206E-2	8.222822E-2	3.164702E-2
10/19/2017  17:42:42.793041	-9.599913E-2	1.064948E-2	6.282096E-3	-1.013887E+1	1.457878E-2	2.455003E-2	7.205661E-2	2.147136E-2
10/19/2017  17:42:42.794041	-1.270402E+0	1.064948E-2	2.409852E-2	-1.013887E+1	1.457878E-2	1.691808E-2	7.205661E-2	3.164702E-2
10/19/2017  17:42:42.795041	-4.696728E-1	8.105642E-3	1.646291E-2	-1.012869E+1	2.222863E-2	2.455003E-2	7.459952E-2	3.164702E-2
10/19/2017  17:42:42.796041	-7.365826E-1	1.064948E-2	1.391770E-2	-1.013887E+1	1.712873E-2	2.709402E-2	6.951371E-2	2.401527E-2
10/19/2017  17:42:42.797041	-8.074715E-2	1.064948E-2	2.664372E-2	-1.013632E+1	1.967868E-2	6.742135E-3	7.968532E-2	2.655919E-2
10/19/2017  17:42:42.798041	3.442462E+0	-4.613560E-3	1.137250E-2	-1.013632E+1	3.242842E-2	2.200605E-2	6.951371E-2	2.910311E-2
10/19/2017  17:42:42.799041	1.380902E+0	1.828100E-2	2.155331E-2	-1.013887E+1	2.477858E-2	4.490191E-2	7.459952E-2	2.655919E-2
10/19/2017  17:42:42.800041	5.496683E-1	2.845637E-2	2.409852E-2	-1.012614E+1	2.222863E-2	2.455003E-2	8.222822E-2	3.673486E-2
10/19/2017  17:42:42.801041	-1.961825E+0	8.105642E-3	1.137250E-2	-1.014142E+1	2.987847E-2	1.437409E-2	6.951371E-2	2.147136E-2
10/19/2017  17:42:42.802041	-4.920711E+0	5.561801E-3	1.900811E-2	-1.016942E+1	1.457878E-2	2.709402E-2	6.951371E-2	2.401527E-2
10/19/2017  17:42:42.803041	-3.781609E-1	1.319332E-2	2.664372E-2	-1.013632E+1	1.457878E-2	2.455003E-2	8.222822E-2	4.182269E-2
10/19/2017  17:42:42.804041	4.227939E+0	5.561801E-3	1.900811E-2	-1.012869E+1	3.242842E-2	1.946206E-2	7.968532E-2	2.401527E-2
10/19/2017  17:42:42.805041	2.880680E+0	1.319332E-2	1.391770E-2	-1.013887E+1	2.477858E-2	2.455003E-2	7.205661E-2	2.655919E-2
10/19/2017  17:42:42.806041	7.937001E-1	1.064948E-2	1.646291E-2	-1.013123E+1	1.457878E-2	1.946206E-2	7.459952E-2	3.419094E-2
10/19/2017  17:42:42.807041	-1.837268E+0	8.105642E-3	1.137250E-2	-1.012869E+1	1.967868E-2	1.437409E-2	7.459952E-2	3.927877E-2
10/19/2017  17:42:42.808041	4.777010E+0	2.336868E-2	1.137250E-2	-1.013378E+1	2.987847E-2	2.455003E-2	6.697081E-2	2.910311E-2
10/19/2017  17:42:42.809041	4.998164E+0	1.064948E-2	2.918892E-2	-1.012869E+1	1.712873E-2	2.709402E-2	7.714242E-2	3.164702E-2
10/19/2017  17:42:42.810041	-1.501724E+0	4.741205E-4	1.137250E-2	-1.013887E+1	1.712873E-2	9.286120E-3	6.951371E-2	3.673486E-2
10/19/2017  17:42:42.811041	-4.935963E+0	8.105642E-3	1.900811E-2	-1.016433E+1	2.222863E-2	9.286120E-3	7.459952E-2	2.401527E-2
10/19/2017  17:42:42.812041	-4.946131E+0	1.573716E-2	2.155331E-2	-1.015924E+1	1.712873E-2	2.200605E-2	7.205661E-2	3.164702E-2
10/19/2017  17:42:42.813041	-4.938505E+0	5.561801E-3	1.646291E-2	-1.014651E+1	1.967868E-2	1.437409E-2	6.697081E-2	3.927877E-2
10/19/2017  17:42:42.814041	-9.551944E-1	1.064948E-2	2.409852E-2	-1.014142E+1	2.477858E-2	1.691808E-2	7.205661E-2	3.164702E-2
10/19/2017  17:42:42.815041	2.623938E+0	1.319332E-2	1.900811E-2	-1.013632E+1	2.222863E-2	2.455003E-2	6.442791E-2	3.164702E-2
								
10/19/2017  17:42:42.816041	2.926436E+0	1.319332E-2	3.427933E-2	-1.013123E+1	2.732853E-2	2.200605E-2	7.459952E-2	4.182269E-2
10/19/2017  17:42:42.817041	2.428205E+0	1.573716E-2	1.137250E-2	-1.013378E+1	2.477858E-2	1.946206E-2	6.951371E-2	2.910311E-2
10/19/2017  17:42:42.818041	4.977828E+0	1.828100E-2	1.646291E-2	-1.014396E+1	2.732853E-2	2.709402E-2	7.459952E-2	2.401527E-2
10/19/2017  17:42:42.819041	-1.966909E+0	3.017961E-3	1.900811E-2	-1.014905E+1	1.967868E-2	1.946206E-2	7.205661E-2	2.655919E-2
10/19/2017  17:42:42.820041	-3.197236E+0	1.064948E-2	1.900811E-2	-1.014651E+1	2.477858E-2	9.286120E-3	7.714242E-2	3.164702E-2
10/19/2017  17:42:42.821041	-2.335499E+0	1.319332E-2	6.282096E-3	-1.014905E+1	3.497837E-2	2.709402E-2	6.951371E-2	2.401527E-2
10/19/2017  17:42:42.822041	-9.806143E-1	1.828100E-2	2.409852E-2	-1.014905E+1	1.457878E-2	2.963800E-2	8.222822E-2	3.164702E-2
10/19/2017  17:42:42.823041	1.119076E+0	-9.701241E-3	1.900811E-2	-1.013887E+1	1.202884E-2	1.691808E-2	6.951371E-2	3.673486E-2
10/19/2017  17:42:42.824041	1.319894E+0	8.105642E-3	1.137250E-2	-1.014651E+1	2.987847E-2	1.946206E-2	6.951371E-2	2.401527E-2
10/19/2017  17:42:42.825041	1.355482E+0	1.828100E-2	2.664372E-2	-1.014396E+1	3.242842E-2	2.963800E-2	8.985693E-2	3.673486E-2
10/19/2017  17:42:42.826041	1.086030E+0	5.561801E-3	1.900811E-2	-1.012614E+1	2.222863E-2	1.183011E-2	7.459952E-2	3.419094E-2
10/19/2017  17:42:42.827041	1.846087E+0	8.105642E-3	1.646291E-2	-1.013632E+1	2.477858E-2	1.946206E-2	6.697081E-2	2.910311E-2
10/19/2017  17:42:42.828041	1.202962E+0	1.573716E-2	2.155331E-2	-1.015160E+1	1.457878E-2	2.200605E-2	8.222822E-2	3.164702E-2
10/19/2017  17:42:42.829041	-6.603226E-1	8.105642E-3	1.646291E-2	-1.013632E+1	1.967868E-2	1.437409E-2	7.459952E-2	4.436661E-2
10/19/2017  17:42:42.830041	-4.300463E+0	8.105642E-3	1.646291E-2	-1.014142E+1	2.477858E-2	2.200605E-2	6.442791E-2	2.401527E-2
10/19/2017  17:42:42.831041	-2.099093E+0	1.828100E-2	2.664372E-2	-1.015160E+1	2.477858E-2	2.709402E-2	7.459952E-2	1.638352E-2
10/19/2017  17:42:42.832041	4.799888E+0	1.064948E-2	1.646291E-2	-1.015669E+1	1.457878E-2	6.742135E-3	7.205661E-2	3.673486E-2
10/19/2017  17:42:42.833041	6.157602E-1	-7.157401E-3	1.646291E-2	-1.012869E+1	2.732853E-2	1.437409E-2	6.951371E-2	3.164702E-2
10/19/2017  17:42:42.834041	-3.415848E+0	1.573716E-2	1.391770E-2	-1.014651E+1	2.222863E-2	3.218199E-2	8.222822E-2	2.401527E-2
10/19/2017  17:42:42.835041	-2.739677E+0	2.336868E-2	3.173413E-2	-1.014651E+1	1.967868E-2	1.946206E-2	7.968532E-2	2.910311E-2
10/19/2017  17:42:42.836041	-2.149933E+0	3.017961E-3	1.646291E-2	-1.014651E+1	1.967868E-2	1.183011E-2	7.205661E-2	3.419094E-2
10/19/2017  17:42:42.837041	-6.803716E-2	1.319332E-2	3.173413E-2	-1.013378E+1	2.477858E-2	1.691808E-2	7.205661E-2	2.910311E-2
10/19/2017  17:42:42.838041	4.993080E+0	1.064948E-2	1.646291E-2	-1.013123E+1	2.732853E-2	2.709402E-2	7.968532E-2	3.164702E-2
10/19/2017  17:42:42.839041	5.003248E+0	5.561801E-3	1.137250E-2	-1.012869E+1	2.987847E-2	4.198150E-3	7.459952E-2	3.927877E-2
10/19/2017  17:42:42.840041	2.092661E+0	-2.069720E-3	1.900811E-2	-1.012869E+1	1.712873E-2	2.455003E-2	7.205661E-2	2.910311E-2
10/19/2017  17:42:42.841041	-2.302453E+0	2.082484E-2	2.664372E-2	-1.014905E+1	1.457878E-2	1.183011E-2	7.968532E-2	2.910311E-2
10/19/2017  17:42:42.842041	-4.356387E+0	3.017961E-3	1.646291E-2	-1.016687E+1	2.987847E-2	1.946206E-2	7.459952E-2	3.927877E-2
10/19/2017  17:42:42.843041	-4.740229E+0	1.319332E-2	1.391770E-2	-1.015415E+1	2.987847E-2	1.946206E-2	6.697081E-2	3.164702E-2
10/19/2017  17:42:42.844041	-2.998961E+0	1.828100E-2	1.391770E-2	-1.014905E+1	9.478889E-3	2.709402E-2	7.205661E-2	2.401527E-2
10/19/2017  17:42:42.845041	-1.567816E+0	1.573716E-2	2.155331E-2	-1.013123E+1	1.457878E-2	1.437409E-2	7.968532E-2	3.927877E-2
10/19/2017  17:42:42.846041	-2.612290E-1	5.561801E-3	1.137250E-2	-1.012869E+1	3.497837E-2	1.437409E-2	7.205661E-2	4.182269E-2
10/19/2017  17:42:42.847041	5.954242E-1	1.828100E-2	1.137250E-2	-1.014905E+1	2.987847E-2	2.709402E-2	6.951371E-2	2.910311E-2
10/19/2017  17:42:42.848041	1.373276E+0	2.336868E-2	2.155331E-2	-1.013887E+1	4.378993E-3	1.946206E-2	7.714242E-2	1.892744E-2
								
10/19/2017  17:42:42.849041	2.298563E+0	8.105642E-3	8.827299E-3	-1.014396E+1	2.222863E-2	1.183011E-2	7.459952E-2	3.164702E-2
10/19/2017  17:42:42.850041	1.187710E+0	1.064948E-2	8.827299E-3	-1.013632E+1	2.222863E-2	2.455003E-2	7.205661E-2	1.638352E-2
10/19/2017  17:42:42.851041	-1.880482E+0	1.064948E-2	1.646291E-2	-1.012105E+1	2.222863E-2	2.455003E-2	8.222822E-2	2.910311E-2
10/19/2017  17:42:42.852041	-3.682758E+0	1.064948E-2	1.391770E-2	-1.014142E+1	1.712873E-2	1.437409E-2	7.205661E-2	3.673486E-2
10/19/2017  17:42:42.853041	-1.944031E+0	1.064948E-2	1.137250E-2	-1.015160E+1	2.987847E-2	1.691808E-2	6.442791E-2	2.655919E-2
10/19/2017  17:42:42.854041	-8.967284E-1	1.064948E-2	2.918892E-2	-1.014651E+1	1.457878E-2	2.455003E-2	7.714242E-2	3.419094E-2
10/19/2017  17:42:42.855041	1.960477E+0	1.573716E-2	1.646291E-2	-1.013887E+1	1.967868E-2	1.691808E-2	7.968532E-2	3.673486E-2
10/19/2017  17:42:42.856041	1.007228E+0	1.064948E-2	3.736893E-3	-1.013632E+1	3.242842E-2	1.437409E-2	6.951371E-2	3.164702E-2
10/19/2017  17:42:42.857041	-1.671751E-1	1.319332E-2	1.900811E-2	-1.014142E+1	1.967868E-2	2.709402E-2	7.205661E-2	3.164702E-2
10/19/2017  17:42:42.858041	1.523253E+0	1.064948E-2	1.137250E-2	-1.013632E+1	1.712873E-2	9.286120E-3	7.459952E-2	2.655919E-2
10/19/2017  17:42:42.859041	4.227939E+0	1.828100E-2	1.900811E-2	-1.013378E+1	1.967868E-2	2.200605E-2	7.205661E-2	3.164702E-2
10/19/2017  17:42:42.860041	1.058068E+0	1.828100E-2	1.646291E-2	-1.014142E+1	2.222863E-2	4.235793E-2	7.205661E-2	3.164702E-2
10/19/2017  17:42:42.861041	-2.653249E+0	2.336868E-2	2.409852E-2	-1.014396E+1	1.712873E-2	1.437409E-2	7.968532E-2	3.673486E-2
10/19/2017  17:42:42.862041	-4.391688E-1	8.105642E-3	1.391770E-2	-1.014142E+1	2.222863E-2	1.946206E-2	7.459952E-2	2.401527E-2
10/19/2017  17:42:42.863041	2.702740E+0	3.354405E-2	1.646291E-2	-1.015924E+1	2.732853E-2	2.455003E-2	7.459952E-2	2.655919E-2
10/19/2017  17:42:42.864041	3.239102E+0	1.319332E-2	2.918892E-2	-1.012869E+1	1.457878E-2	2.200605E-2	7.714242E-2	2.910311E-2
10/19/2017  17:42:42.865041	4.296573E+0	8.105642E-3	1.646291E-2	-1.012105E+1	1.457878E-2	1.437409E-2	7.714242E-2	2.401527E-2
10/19/2017  17:42:42.866041	2.270601E+0	1.064948E-2	1.646291E-2	-1.013887E+1	1.967868E-2	1.691808E-2	7.459952E-2	2.910311E-2
10/19/2017  17:42:42.867041	-2.648165E+0	1.319332E-2	2.664372E-2	-1.014142E+1	9.478889E-3	2.455003E-2	7.459952E-2	3.164702E-2
10/19/2017  17:42:42.868041	-4.928337E+0	1.064948E-2	2.409852E-2	-1.014651E+1	1.967868E-2	2.200605E-2	7.459952E-2	3.673486E-2
10/19/2017  17:42:42.869041	-3.807029E-1	1.573716E-2	1.137250E-2	-1.014396E+1	2.732853E-2	1.946206E-2	7.205661E-2	4.182269E-2
10/19/2017  17:42:42.870041	1.830835E+0	1.064948E-2	1.646291E-2	-1.015415E+1	2.222863E-2	1.946206E-2	6.951371E-2	2.910311E-2
10/19/2017  17:42:42.871041	-4.712267E+0	8.105642E-3	2.155331E-2	-1.013887E+1	9.478889E-3	1.691808E-2	7.459952E-2	4.691052E-2
10/19/2017  17:42:42.872041	-4.928337E+0	1.319332E-2	2.155331E-2	-1.012869E+1	2.732853E-2	1.946206E-2	7.205661E-2	2.910311E-2
10/19/2017  17:42:42.873041	-3.832736E+0	1.319332E-2	2.664372E-2	-1.014905E+1	2.477858E-2	1.691808E-2	7.205661E-2	3.164702E-2
10/19/2017  17:42:42.874041	2.458709E+0	8.105642E-3	2.155331E-2	-1.012869E+1	1.967868E-2	1.946206E-2	6.697081E-2	3.673486E-2
10/19/2017  17:42:42.875041	2.763748E+0	8.105642E-3	1.191689E-3	-1.013632E+1	2.477858E-2	1.691808E-2	7.205661E-2	3.164702E-2
10/19/2017  17:42:42.876041	3.704287E+0	1.828100E-2	1.900811E-2	-1.013123E+1	2.222863E-2	2.200605E-2	6.188501E-2	3.164702E-2
10/19/2017  17:42:42.877041	-6.959106E-1	8.105642E-3	2.918892E-2	-1.012614E+1	1.967868E-2	2.709402E-2	7.205661E-2	3.927877E-2
10/19/2017  17:42:42.878041	-2.617661E+0	1.319332E-2	1.137250E-2	-1.015415E+1	2.477858E-2	2.709402E-2	6.697081E-2	3.164702E-2
10/19/2017  17:42:42.879041	-1.072126E+0	1.064948E-2	1.646291E-2	-1.014142E+1	9.478889E-3	1.691808E-2	8.222822E-2	2.147136E-2
10/19/2017  17:42:42.880041	2.512091E+0	1.064948E-2	1.900811E-2	-1.013632E+1	2.477858E-2	1.437409E-2	7.205661E-2	3.927877E-2
10/19/2017  17:42:42.881041	2.473961E+0	1.573716E-2	1.391770E-2	-1.014142E+1	2.987847E-2	3.472597E-2	6.697081E-2	3.164702E-2
								
10/19/2017  17:42:42.882041	1.652895E+0	3.863173E-2	1.900811E-2	-1.012869E+1	9.478889E-3	1.691808E-2	7.714242E-2	2.401527E-2
10/19/2017  17:42:42.883041	1.607139E+0	8.105642E-3	1.646291E-2	-1.013632E+1	1.967868E-2	1.183011E-2	6.951371E-2	3.927877E-2
10/19/2017  17:42:42.884041	9.335099E-1	1.828100E-2	1.137250E-2	-1.014142E+1	1.967868E-2	2.709402E-2	6.188501E-2	2.655919E-2
10/19/2017  17:42:42.885041	9.665559E-1	1.828100E-2	1.646291E-2	-1.012869E+1	1.967868E-2	1.946206E-2	7.205661E-2	3.164702E-2
10/19/2017  17:42:42.886041	-9.091514E-2	5.561801E-3	1.900811E-2	-1.012105E+1	3.497837E-2	1.437409E-2	7.714242E-2	3.927877E-2
10/19/2017  17:42:42.887041	-2.358090E-1	1.319332E-2	1.391770E-2	-1.014142E+1	2.477858E-2	1.946206E-2	6.442791E-2	3.164702E-2
10/19/2017  17:42:42.888041	6.945622E-1	1.064948E-2	1.900811E-2	-1.014651E+1	9.478889E-3	2.963800E-2	7.459952E-2	1.638352E-2
10/19/2017  17:42:42.889041	8.801280E-1	8.105642E-3	1.646291E-2	-1.011596E+1	2.222863E-2	1.437409E-2	7.459952E-2	3.673486E-2
10/19/2017  17:42:42.890041	-1.110256E+0	1.573716E-2	1.137250E-2	-1.013632E+1	2.987847E-2	1.946206E-2	6.951371E-2	4.691052E-2
10/19/2017  17:42:42.891041	-1.209394E+0	1.573716E-2	1.900811E-2	-1.015669E+1	2.222863E-2	2.455003E-2	7.459952E-2	3.419094E-2
10/19/2017  17:42:42.892041	-2.007581E+0	4.741205E-4	1.391770E-2	-1.013632E+1	1.967868E-2	1.183011E-2	7.459952E-2	2.147136E-2
10/19/2017  17:42:42.893041	-3.903912E+0	2.082484E-2	1.137250E-2	-1.015924E+1	1.967868E-2	1.183011E-2	7.459952E-2	3.673486E-2
10/19/2017  17:42:42.894041	3.836471E+0	2.336868E-2	3.173413E-2	-1.013632E+1	1.712873E-2	2.455003E-2	7.714242E-2	3.164702E-2
10/19/2017  17:42:42.895041	4.995622E+0	5.561801E-3	2.155331E-2	-1.012614E+1	2.222863E-2	2.200605E-2	7.714242E-2	3.673486E-2
10/19/2017  17:42:42.896041	-8.713084E-1	1.319332E-2	1.646291E-2	-1.013378E+1	1.967868E-2	1.691808E-2	6.697081E-2	2.147136E-2
10/19/2017  17:42:42.897041	-3.781609E-1	1.573716E-2	1.646291E-2	-1.013887E+1	1.967868E-2	2.455003E-2	8.477112E-2	3.164702E-2
10/19/2017  17:42:42.898041	-1.885566E+0	5.561801E-3	3.682453E-2	-1.013887E+1	1.967868E-2	2.709402E-2	7.459952E-2	3.419094E-2
10/19/2017  17:42:42.899041	-2.724425E+0	2.082484E-2	1.646291E-2	-1.013887E+1	3.242842E-2	2.963800E-2	6.697081E-2	2.147136E-2
10/19/2017  17:42:42.900041	-8.074715E-2	1.573716E-2	2.409852E-2	-1.014396E+1	2.732853E-2	1.946206E-2	7.968532E-2	3.164702E-2
10/19/2017  17:42:42.901041	2.720534E+0	4.741205E-4	1.391770E-2	-1.012614E+1	1.712873E-2	1.946206E-2	6.951371E-2	3.164702E-2
10/19/2017  17:42:42.902041	3.933067E+0	1.319332E-2	1.900811E-2	-1.014142E+1	2.477858E-2	1.691808E-2	6.951371E-2	2.147136E-2
10/19/2017  17:42:42.903041	2.438373E+0	1.828100E-2	2.409852E-2	-1.012359E+1	2.477858E-2	1.946206E-2	8.222822E-2	3.419094E-2
10/19/2017  17:42:42.904041	2.791710E+0	5.561801E-3	1.900811E-2	-1.012869E+1	2.222863E-2	1.437409E-2	7.459952E-2	4.436661E-2
10/19/2017  17:42:42.905041	-3.141312E+0	1.064948E-2	1.137250E-2	-1.015924E+1	1.967868E-2	2.709402E-2	6.951371E-2	2.655919E-2
10/19/2017  17:42:42.906041	-2.668501E+0	1.319332E-2	2.155331E-2	-1.014396E+1	1.457878E-2	1.946206E-2	8.222822E-2	4.182269E-2
10/19/2017  17:42:42.907041	2.204509E+0	8.105642E-3	1.137250E-2	-1.013632E+1	4.262821E-2	1.691808E-2	7.459952E-2	3.419094E-2
10/19/2017  17:42:42.908041	1.535963E+0	1.828100E-2	2.155331E-2	-1.013123E+1	2.222863E-2	3.218199E-2	7.205661E-2	2.401527E-2
10/19/2017  17:42:42.909041	-2.716799E+0	1.319332E-2	1.900811E-2	-1.014142E+1	1.457878E-2	1.691808E-2	6.951371E-2	3.164702E-2
10/19/2017  17:42:42.910041	-3.105724E+0	1.064948E-2	1.900811E-2	-1.015669E+1	2.987847E-2	1.946206E-2	6.697081E-2	3.164702E-2
10/19/2017  17:42:42.911041	-1.044164E+0	1.573716E-2	1.900811E-2	-1.014651E+1	2.477858E-2	2.963800E-2	7.459952E-2	2.147136E-2
10/19/2017  17:42:42.912041	9.741819E-1	5.561801E-3	2.155331E-2	-1.011596E+1	1.457878E-2	2.709402E-2	8.222822E-2	3.927877E-2
10/19/2017  17:42:42.913041	1.439367E+0	1.064948E-2	1.137250E-2	-1.013378E+1	2.477858E-2	1.183011E-2	6.951371E-2	1.892744E-2
10/19/2017  17:42:42.914041	1.052984E+0	1.828100E-2	1.391770E-2	-1.016178E+1	2.477858E-2	1.946206E-2	7.205661E-2	2.401527E-2
								
10/19/2017  17:42:42.915041	-7.238726E-1	5.561801E-3	2.664372E-2	-1.014396E+1	1.457878E-2	2.200605E-2	7.205661E-2	3.164702E-2
10/19/2017  17:42:42.916041	-2.172811E+0	1.064948E-2	1.391770E-2	-1.014142E+1	2.222863E-2	1.946206E-2	7.968532E-2	3.164702E-2
10/19/2017  17:42:42.917041	-2.637710E-1	2.845637E-2	2.664372E-2	-1.014651E+1	2.987847E-2	2.963800E-2	7.459952E-2	2.655919E-2
10/19/2017  17:42:42.918041	4.253359E+0	4.741205E-4	1.900811E-2	-1.013378E+1	1.967868E-2	1.437409E-2	7.205661E-2	3.927877E-2
10/19/2017  17:42:42.919041	3.966113E+0	1.573716E-2	1.646291E-2	-1.013378E+1	1.712873E-2	9.286120E-3	7.459952E-2	2.401527E-2
10/19/2017  17:42:42.920041	1.551215E+0	1.319332E-2	2.409852E-2	-1.013887E+1	1.967868E-2	2.963800E-2	7.968532E-2	3.164702E-2
10/19/2017  17:42:42.921041	-1.415296E+0	5.561801E-3	1.900811E-2	-1.013632E+1	2.477858E-2	1.691808E-2	7.459952E-2	4.182269E-2
10/19/2017  17:42:42.922041	-3.680216E+0	1.828100E-2	1.137250E-2	-1.013887E+1	2.222863E-2	1.946206E-2	6.951371E-2	2.401527E-2
10/19/2017  17:42:42.923041	-1.506808E+0	1.828100E-2	2.664372E-2	-1.015669E+1	1.712873E-2	1.183011E-2	8.222822E-2	2.910311E-2
10/19/2017  17:42:42.924041	1.200707E-1	1.828100E-2	2.664372E-2	-1.014396E+1	9.478889E-3	1.437409E-2	7.459952E-2	4.182269E-2
10/19/2017  17:42:42.925041	-3.934129E-1	1.064948E-2	1.646291E-2	-1.013378E+1	2.732853E-2	1.946206E-2	6.697081E-2	2.401527E-2
10/19/2017  17:42:42.926041	-2.841070E-1	1.573716E-2	1.391770E-2	-1.014396E+1	3.242842E-2	2.709402E-2	7.459952E-2	2.655919E-2
10/19/2017  17:42:42.927041	3.920644E-1	1.064948E-2	1.900811E-2	-1.013887E+1	1.967868E-2	1.946206E-2	7.205661E-2	3.164702E-2
10/19/2017  17:42:42.928041	-1.039080E+0	1.064948E-2	1.900811E-2	-1.013887E+1	6.928941E-3	1.946206E-2	6.442791E-2	3.419094E-2
10/19/2017  17:42:42.929041	-2.592241E+0	1.828100E-2	1.900811E-2	-1.014905E+1	1.967868E-2	2.963800E-2	7.205661E-2	2.401527E-2
10/19/2017  17:42:42.930041	-2.561737E+0	1.064948E-2	2.155331E-2	-1.013887E+1	1.457878E-2	1.437409E-2	7.968532E-2	3.164702E-2
10/19/2017  17:42:42.931041	8.445400E-1	5.561801E-3	6.282096E-3	-1.014396E+1	2.477858E-2	1.437409E-2	7.205661E-2	3.419094E-2
10/19/2017  17:42:42.932041	2.865428E+0	1.319332E-2	1.900811E-2	-1.013632E+1	2.477858E-2	2.963800E-2	7.714242E-2	2.401527E-2
10/19/2017  17:42:42.933041	-2.757471E+0	1.573716E-2	2.409852E-2	-1.013123E+1	1.202884E-2	2.200605E-2	8.731403E-2	3.419094E-2
10/19/2017  17:42:42.934041	1.048187E-1	1.319332E-2	2.409852E-2	-1.013632E+1	2.477858E-2	1.691808E-2	7.459952E-2	3.164702E-2
10/19/2017  17:42:42.935041	-4.473319E+0	1.064948E-2	1.646291E-2	-1.014905E+1	1.967868E-2	2.200605E-2	6.442791E-2	2.655919E-2
10/19/2017  17:42:42.936041	-4.943589E+0	4.741205E-4	1.900811E-2	-1.014396E+1	1.967868E-2	1.946206E-2	7.205661E-2	3.164702E-2
10/19/2017  17:42:42.937041	-4.417108E-1	1.064948E-2	1.900811E-2	-1.013887E+1	2.732853E-2	1.437409E-2	8.477112E-2	3.927877E-2
10/19/2017  17:42:42.938041	5.018500E+0	1.319332E-2	1.900811E-2	-1.013887E+1	3.242842E-2	1.946206E-2	6.951371E-2	3.164702E-2
10/19/2017  17:42:42.939041	4.685499E+0	1.319332E-2	1.900811E-2	-1.013632E+1	1.712873E-2	1.946206E-2	7.205661E-2	2.910311E-2
10/19/2017  17:42:42.940041	3.457714E+0	8.105642E-3	6.282096E-3	-1.013378E+1	1.202884E-2	9.286120E-3	7.968532E-2	3.927877E-2
10/19/2017  17:42:42.941041	8.597920E-1	3.017961E-3	1.646291E-2	-1.014142E+1	2.987847E-2	1.691808E-2	7.205661E-2	3.927877E-2
10/19/2017  17:42:42.942041	-1.036538E+0	1.573716E-2	1.137250E-2	-1.014905E+1	2.477858E-2	4.235793E-2	6.951371E-2	3.164702E-2
10/19/2017  17:42:42.943041	-1.649160E+0	2.336868E-2	2.155331E-2	-1.013378E+1	1.457878E-2	2.455003E-2	8.222822E-2	3.164702E-2
10/19/2017  17:42:42.944041	-1.361914E+0	8.105642E-3	1.137250E-2	-1.014396E+1	1.967868E-2	1.437409E-2	6.951371E-2	3.673486E-2
10/19/2017  17:42:42.945041	7.431471E-2	4.741205E-4	1.391770E-2	-1.014905E+1	2.222863E-2	2.963800E-2	6.697081E-2	2.401527E-2
10/19/2017  17:42:42.946041	3.394164E+0	1.319332E-2	1.900811E-2	-1.013887E+1	2.222863E-2	2.709402E-2	7.459952E-2	3.164702E-2
10/19/2017  17:42:42.947041	-1.570071E-1	5.561801E-3	2.155331E-2	-1.011850E+1	2.987847E-2	1.946206E-2	7.714242E-2	3.164702E-2
								
10/19/2017  17:42:42.948041	4.098584E-1	1.064948E-2	8.827299E-3	-1.014651E+1	2.477858E-2	1.946206E-2	7.459952E-2	3.164702E-2
10/19/2017  17:42:42.949041	2.885764E+0	1.319332E-2	1.900811E-2	-1.014651E+1	9.478889E-3	1.946206E-2	6.697081E-2	3.927877E-2
10/19/2017  17:42:42.950041	3.419584E+0	1.319332E-2	2.155331E-2	-1.014905E+1	1.457878E-2	1.437409E-2	7.968532E-2	3.164702E-2
10/19/2017  17:42:42.951041	3.005525E-1	8.105642E-3	1.137250E-2	-1.013632E+1	2.477858E-2	1.691808E-2	7.714242E-2	4.436661E-2
10/19/2017  17:42:42.952041	1.353227E-1	1.573716E-2	2.409852E-2	-1.013378E+1	2.222863E-2	2.963800E-2	7.205661E-2	3.164702E-2
10/19/2017  17:42:42.953041	-2.787975E+0	1.064948E-2	1.900811E-2	-1.013887E+1	1.457878E-2	1.946206E-2	8.222822E-2	2.910311E-2
10/19/2017  17:42:42.954041	1.952851E+0	8.105642E-3	1.900811E-2	-1.014396E+1	1.967868E-2	9.286120E-3	7.459952E-2	3.164702E-2
10/19/2017  17:42:42.955041	2.031653E+0	1.064948E-2	1.646291E-2	-1.013887E+1	2.222863E-2	2.200605E-2	7.205661E-2	3.419094E-2
10/19/2017  17:42:42.956041	-1.344120E+0	1.064948E-2	1.900811E-2	-1.013887E+1	1.712873E-2	2.200605E-2	8.222822E-2	2.910311E-2
10/19/2017  17:42:42.957041	-3.029464E+0	1.828100E-2	3.736893E-3	-1.015160E+1	1.967868E-2	1.437409E-2	7.459952E-2	3.419094E-2
10/19/2017  17:42:42.958041	-8.255525E-1	3.017961E-3	1.391770E-2	-1.013887E+1	2.732853E-2	1.946206E-2	6.442791E-2	3.164702E-2
10/19/2017  17:42:42.959041	1.385986E+0	1.828100E-2	2.664372E-2	-1.014142E+1	1.967868E-2	3.218199E-2	7.205661E-2	2.910311E-2
10/19/2017  17:42:42.960041	-1.529686E+0	1.828100E-2	2.918892E-2	-1.013378E+1	1.712873E-2	2.200605E-2	7.459952E-2	3.164702E-2
10/19/2017  17:42:42.961041	-2.020291E+0	1.064948E-2	8.827299E-3	-1.013632E+1	2.987847E-2	2.455003E-2	7.205661E-2	3.927877E-2
10/19/2017  17:42:42.962041	3.353492E+0	4.741205E-4	1.137250E-2	-1.014905E+1	2.477858E-2	2.709402E-2	6.697081E-2	2.910311E-2
10/19/2017  17:42:42.963041	4.975286E+0	2.082484E-2	2.409852E-2	-1.013378E+1	1.712873E-2	2.200605E-2	7.968532E-2	3.164702E-2
10/19/2017  17:42:42.964041	2.461251E+0	2.591253E-2	1.900811E-2	-1.012869E+1	2.477858E-2	1.183011E-2	7.968532E-2	2.910311E-2
10/19/2017  17:42:42.965041	-2.891910E-1	1.573716E-2	1.646291E-2	-1.014142E+1	2.477858E-2	1.946206E-2	6.697081E-2	2.401527E-2
10/19/2017  17:42:42.966041	-3.019296E+0	1.828100E-2	2.155331E-2	-1.014651E+1	4.378993E-3	1.946206E-2	7.459952E-2	3.164702E-2
10/19/2017  17:42:42.967041	-2.892197E+0	5.561801E-3	1.900811E-2	-1.013887E+1	1.712873E-2	1.437409E-2	6.697081E-2	3.673486E-2
10/19/2017  17:42:42.968041	-1.519231E-1	1.573716E-2	1.646291E-2	-1.014142E+1	2.477858E-2	2.709402E-2	6.951371E-2	2.401527E-2
10/19/2017  17:42:42.969041	-1.440716E+0	1.828100E-2	2.409852E-2	-1.014142E+1	1.712873E-2	2.963800E-2	7.459952E-2	2.401527E-2
10/19/2017  17:42:42.970041	-3.705349E-1	5.561801E-3	1.900811E-2	-1.013123E+1	1.457878E-2	1.183011E-2	8.477112E-2	3.164702E-2
10/19/2017  17:42:42.971041	9.690979E-1	1.573716E-2	8.827299E-3	-1.013887E+1	2.987847E-2	1.946206E-2	7.205661E-2	3.164702E-2
10/19/2017  17:42:42.972041	-3.451149E-1	2.082484E-2	2.155331E-2	-1.014142E+1	2.222863E-2	2.963800E-2	7.459952E-2	3.927877E-2
10/19/2017  17:42:42.973041	-3.136228E+0	1.319332E-2	2.664372E-2	-1.011850E+1	1.457878E-2	2.709402E-2	8.477112E-2	3.927877E-2
10/19/2017  17:42:42.974041	1.556586E-1	1.064948E-2	1.137250E-2	-1.013632E+1	1.967868E-2	9.286120E-3	7.205661E-2	3.673486E-2
10/19/2017  17:42:42.975041	2.598805E-1	5.561801E-3	1.137250E-2	-1.016178E+1	2.477858E-2	2.200605E-2	6.188501E-2	2.401527E-2
10/19/2017  17:42:42.976041	4.149424E-1	1.064948E-2	1.137250E-2	-1.014142E+1	1.457878E-2	2.709402E-2	7.459952E-2	3.164702E-2
10/19/2017  17:42:42.977041	2.290937E+0	1.319332E-2	2.155331E-2	-1.014396E+1	1.967868E-2	2.200605E-2	8.477112E-2	3.419094E-2
10/19/2017  17:42:42.978041	2.064699E+0	1.828100E-2	2.664372E-2	-1.013378E+1	2.477858E-2	2.200605E-2	6.951371E-2	2.655919E-2
10/19/2017  17:42:42.979041	1.614765E+0	1.319332E-2	1.900811E-2	-1.014651E+1	2.477858E-2	2.709402E-2	6.951371E-2	2.401527E-2
10/19/2017  17:42:42.980041	2.667152E+0	1.573716E-2	2.155331E-2	-1.012869E+1	1.202884E-2	1.946206E-2	7.968532E-2	3.419094E-2
								
10/19/2017  17:42:42.981041	-7.543765E-1	1.319332E-2	1.900811E-2	-1.013378E+1	2.477858E-2	1.437409E-2	6.951371E-2	3.927877E-2
10/19/2017  17:42:42.982041	-2.854067E+0	1.573716E-2	1.646291E-2	-1.015669E+1	1.967868E-2	3.726996E-2	7.205661E-2	2.655919E-2
10/19/2017  17:42:42.983041	-3.865782E+0	1.064948E-2	1.900811E-2	-1.014651E+1	1.457878E-2	1.946206E-2	7.968532E-2	2.655919E-2
10/19/2017  17:42:42.984041	-1.567816E+0	1.319332E-2	1.391770E-2	-1.013887E+1	1.967868E-2	1.183011E-2	6.951371E-2	2.147136E-2
10/19/2017  17:42:42.985041	1.093656E+0	1.573716E-2	1.900811E-2	-1.015924E+1	2.222863E-2	2.963800E-2	7.205661E-2	2.655919E-2
10/19/2017  17:42:42.986041	3.661073E+0	1.064948E-2	2.664372E-2	-1.012869E+1	1.712873E-2	2.200605E-2	8.222822E-2	2.910311E-2
10/19/2017  17:42:42.987041	2.087577E+0	4.741205E-4	1.900811E-2	-1.012105E+1	2.477858E-2	1.183011E-2	7.714242E-2	3.419094E-2
10/19/2017  17:42:42.988041	9.716399E-1	2.082484E-2	1.391770E-2	-1.013887E+1	2.477858E-2	2.455003E-2	6.442791E-2	2.655919E-2
10/19/2017  17:42:42.989041	-2.071131E+0	1.573716E-2	2.664372E-2	-1.013887E+1	1.967868E-2	2.200605E-2	7.459952E-2	3.673486E-2
10/19/2017  17:42:42.990041	-2.615119E+0	8.105642E-3	1.646291E-2	-1.012869E+1	2.222863E-2	2.200605E-2	7.714242E-2	3.673486E-2
10/19/2017  17:42:42.991041	-1.608488E+0	1.319332E-2	1.137250E-2	-1.014142E+1	2.732853E-2	1.946206E-2	6.951371E-2	1.638352E-2
10/19/2017  17:42:42.992041	-2.920159E+0	1.573716E-2	2.155331E-2	-1.014142E+1	1.457878E-2	2.709402E-2	7.714242E-2	2.147136E-2
10/19/2017  17:42:42.993041	-8.230105E-1	8.105642E-3	1.900811E-2	-1.013632E+1	2.222863E-2	1.691808E-2	7.205661E-2	2.910311E-2
10/19/2017  17:42:42.994041	4.166931E+0	1.319332E-2	1.900811E-2	-1.013378E+1	2.477858E-2	6.742135E-3	7.205661E-2	3.164702E-2
10/19/2017  17:42:42.995041	6.668872E-2	2.591253E-2	1.900811E-2	-1.014651E+1	2.222863E-2	2.709402E-2	7.459952E-2	2.401527E-2
10/19/2017  17:42:42.996041	9.614719E-1	8.105642E-3	2.155331E-2	-1.013887E+1	1.712873E-2	4.198150E-3	7.205661E-2	2.910311E-2
10/19/2017  17:42:42.997041	5.021042E+0	5.561801E-3	1.137250E-2	-1.013378E+1	1.967868E-2	1.437409E-2	6.697081E-2	3.673486E-2
10/19/2017  17:42:42.998041	4.993080E+0	1.573716E-2	1.646291E-2	-1.012105E+1	2.222863E-2	2.200605E-2	8.985693E-2	2.401527E-2
10/19/2017  17:42:42.999041	-4.981719E+0	1.319332E-2	3.936974E-2	-1.014651E+1	2.222863E-2	2.963800E-2	7.968532E-2	3.164702E-2
10/19/2017  17:42:43.000041	-4.262333E+0	8.105642E-3	1.646291E-2	-1.013887E+1	2.477858E-2	1.183011E-2	6.442791E-2	3.419094E-2
10/19/2017  17:42:43.001041	-1.445800E+0	2.336868E-2	1.137250E-2	-1.015415E+1	4.262821E-2	2.455003E-2	7.205661E-2	2.147136E-2
10/19/2017  17:42:43.002041	-1.748298E+0	8.105642E-3	2.409852E-2	-1.015160E+1	1.457878E-2	1.946206E-2	7.968532E-2	3.419094E-2
10/19/2017  17:42:43.003041	5.293323E-1	8.105642E-3	1.646291E-2	-1.012869E+1	2.222863E-2	1.183011E-2	7.459952E-2	3.419094E-2
10/19/2017  17:42:43.004041	2.827585E-1	2.845637E-2	1.646291E-2	-1.013632E+1	1.712873E-2	2.200605E-2	7.459952E-2	2.147136E-2
10/19/2017  17:42:43.005041	1.454906E-1	1.319332E-2	2.409852E-2	-1.013887E+1	1.457878E-2	9.286120E-3	7.714242E-2	3.164702E-2
10/19/2017  17:42:43.006041	1.436825E+0	-1.224508E-2	1.137250E-2	-1.013632E+1	1.457878E-2	1.437409E-2	6.951371E-2	3.419094E-2
10/19/2017  17:42:43.007041	2.181631E+0	2.082484E-2	8.827299E-3	-1.014142E+1	2.477858E-2	2.709402E-2	6.951371E-2	2.655919E-2
10/19/2017  17:42:43.008041	-7.314986E-1	1.319332E-2	2.409852E-2	-1.013378E+1	3.242842E-2	2.200605E-2	8.731403E-2	3.419094E-2
10/19/2017  17:42:43.009041	-1.572900E+0	5.561801E-3	8.827299E-3	-1.013123E+1	2.732853E-2	1.691808E-2	6.951371E-2	2.910311E-2
10/19/2017  17:42:43.010041	-1.552564E+0	1.573716E-2	6.282096E-3	-1.014651E+1	2.477858E-2	2.455003E-2	6.442791E-2	1.638352E-2
10/19/2017  17:42:43.011041	1.630017E+0	1.319332E-2	2.155331E-2	-1.014651E+1	1.457878E-2	1.946206E-2	8.222822E-2	2.910311E-2
10/19/2017  17:42:43.012041	4.865980E+0	5.561801E-3	1.900811E-2	-1.012869E+1	2.222863E-2	1.183011E-2	7.459952E-2	2.910311E-2
10/19/2017  17:42:43.013041	4.253359E+0	1.064948E-2	1.137250E-2	-1.013378E+1	2.477858E-2	2.455003E-2	7.459952E-2	3.164702E-2
								
10/19/2017  17:42:43.014041	-1.997413E+0	5.561801E-3	1.137250E-2	-1.013632E+1	1.967868E-2	2.455003E-2	6.951371E-2	2.401527E-2
10/19/2017  17:42:43.015041	-3.446352E+0	1.319332E-2	1.391770E-2	-1.016178E+1	1.967868E-2	1.183011E-2	8.222822E-2	3.419094E-2
10/19/2017  17:42:43.016041	-2.038085E+0	1.573716E-2	1.900811E-2	-1.014396E+1	2.987847E-2	2.200605E-2	6.697081E-2	2.401527E-2
10/19/2017  17:42:43.017041	-8.458885E-1	1.828100E-2	1.900811E-2	-1.013887E+1	1.457878E-2	2.963800E-2	7.205661E-2	2.401527E-2
10/19/2017  17:42:43.018041	-1.834726E+0	4.741205E-4	2.918892E-2	-1.013887E+1	2.222863E-2	9.286120E-3	7.968532E-2	3.673486E-2
10/19/2017  17:42:43.019041	3.800883E+0	1.064948E-2	1.646291E-2	-1.013378E+1	2.732853E-2	2.455003E-2	5.934210E-2	2.910311E-2
10/19/2017  17:42:43.020041	2.588350E+0	2.082484E-2	2.155331E-2	-1.013632E+1	1.712873E-2	2.963800E-2	7.205661E-2	3.164702E-2
10/19/2017  17:42:43.021041	-2.493103E+0	1.828100E-2	1.391770E-2	-1.013378E+1	2.222863E-2	1.946206E-2	7.205661E-2	2.655919E-2
10/19/2017  17:42:43.022041	-4.046264E+0	1.319332E-2	-1.353514E-3	-1.014396E+1	2.477858E-2	9.286120E-3	7.205661E-2	3.164702E-2
10/19/2017  17:42:43.023041	-2.846441E+0	8.105642E-3	1.900811E-2	-1.015924E+1	2.222863E-2	2.455003E-2	7.968532E-2	2.910311E-2
10/19/2017  17:42:43.024041	-1.161096E+0	1.064948E-2	2.155331E-2	-1.013378E+1	1.457878E-2	1.183011E-2	7.968532E-2	4.182269E-2
10/19/2017  17:42:43.025041	-3.273209E-1	1.064948E-2	1.137250E-2	-1.014651E+1	2.987847E-2	1.946206E-2	6.951371E-2	2.910311E-2
10/19/2017  17:42:43.026041	-2.866490E-1	1.828100E-2	1.646291E-2	-1.014905E+1	2.222863E-2	2.455003E-2	7.205661E-2	2.401527E-2
10/19/2017  17:42:43.027041	-1.407670E+0	-4.613560E-3	2.155331E-2	-1.013378E+1	1.202884E-2	2.455003E-2	7.205661E-2	3.164702E-2
10/19/2017  17:42:43.028041	-4.058974E+0	1.319332E-2	1.137250E-2	-1.014142E+1	2.732853E-2	2.200605E-2	7.205661E-2	3.419094E-2
10/19/2017  17:42:43.029041	-3.936958E+0	2.082484E-2	2.155331E-2	-1.014905E+1	3.242842E-2	1.946206E-2	7.205661E-2	2.655919E-2
10/19/2017  17:42:43.030041	-3.329420E+0	8.105642E-3	1.900811E-2	-1.014651E+1	2.477858E-2	1.437409E-2	7.459952E-2	3.673486E-2
10/19/2017  17:42:43.031041	1.352940E+0	1.064948E-2	1.137250E-2	-1.014142E+1	9.478889E-3	2.709402E-2	6.951371E-2	2.147136E-2
10/19/2017  17:42:43.032041	5.008332E+0	1.828100E-2	1.646291E-2	-1.015415E+1	1.457878E-2	2.200605E-2	8.477112E-2	3.419094E-2
10/19/2017  17:42:43.033041	5.003248E+0	8.105642E-3	2.409852E-2	-1.011850E+1	2.477858E-2	1.437409E-2	7.459952E-2	3.419094E-2
10/19/2017  17:42:43.034041	4.212687E+0	1.319332E-2	2.918892E-2	-1.012359E+1	2.222863E-2	2.455003E-2	7.205661E-2	2.401527E-2
10/19/2017  17:42:43.035041	1.790163E+0	1.064948E-2	2.155331E-2	-1.012869E+1	1.457878E-2	1.691808E-2	7.968532E-2	2.910311E-2
10/19/2017  17:42:43.036041	1.116534E+0	5.561801E-3	1.391770E-2	-1.013378E+1	2.477858E-2	1.183011E-2	6.697081E-2	3.164702E-2
10/19/2017  17:42:43.037041	-2.053050E-1	5.561801E-3	2.155331E-2	-1.014142E+1	2.222863E-2	2.455003E-2	7.205661E-2	2.655919E-2
10/19/2017  17:42:43.038041	6.923072E-2	8.105642E-3	2.409852E-2	-1.013632E+1	1.457878E-2	2.200605E-2	8.477112E-2	3.927877E-2
10/19/2017  17:42:43.039041	1.416490E+0	1.573716E-2	8.827299E-3	-1.013378E+1	2.477858E-2	9.286120E-3	7.459952E-2	4.182269E-2
10/19/2017  17:42:43.040041	7.733641E-1	2.082484E-2	1.137250E-2	-1.014651E+1	2.477858E-2	2.963800E-2	6.442791E-2	2.655919E-2
10/19/2017  17:42:43.041041	1.487665E+0	1.319332E-2	1.900811E-2	-1.012869E+1	2.477858E-2	2.455003E-2	7.968532E-2	2.910311E-2
10/19/2017  17:42:43.042041	2.867970E+0	1.573716E-2	1.646291E-2	-1.013378E+1	2.477858E-2	2.200605E-2	7.205661E-2	3.164702E-2
10/19/2017  17:42:43.043041	3.122170E+0	1.828100E-2	1.900811E-2	-1.014142E+1	2.477858E-2	3.726996E-2	7.205661E-2	2.401527E-2
10/19/2017  17:42:43.044041	2.471706E-1	-4.613560E-3	2.155331E-2	-1.013887E+1	1.202884E-2	1.437409E-2	7.968532E-2	3.673486E-2
10/19/2017  17:42:43.045041	-3.405680E+0	1.064948E-2	1.137250E-2	-1.014396E+1	2.987847E-2	1.691808E-2	6.697081E-2	2.147136E-2
10/19/2017  17:42:43.046041	-4.801237E+0	3.354405E-2	2.155331E-2	-1.015924E+1	2.987847E-2	2.709402E-2	8.222822E-2	3.164702E-2
								
10/19/2017  17:42:43.047041	-4.935963E+0	8.105642E-3	2.409852E-2	-1.014905E+1	1.457878E-2	1.691808E-2	7.459952E-2	3.673486E-2
10/19/2017  17:42:43.048041	-2.869319E+0	8.105642E-3	1.137250E-2	-1.013632E+1	1.712873E-2	1.946206E-2	6.951371E-2	2.655919E-2
10/19/2017  17:42:43.049041	4.766842E+0	1.828100E-2	1.137250E-2	-1.014905E+1	1.457878E-2	2.455003E-2	8.222822E-2	2.401527E-2
10/19/2017  17:42:43.050041	3.480592E+0	1.064948E-2	2.155331E-2	-1.012359E+1	3.242842E-2	1.691808E-2	7.459952E-2	4.436661E-2
10/19/2017  17:42:43.051041	-6.425286E-1	1.319332E-2	1.646291E-2	-1.012614E+1	2.732853E-2	2.200605E-2	7.205661E-2	2.910311E-2
10/19/2017  17:42:43.052041	-8.204685E-1	1.064948E-2	1.900811E-2	-1.013632E+1	1.967868E-2	1.946206E-2	8.222822E-2	2.401527E-2
10/19/2017  17:42:43.053041	1.734239E+0	1.064948E-2	8.827299E-3	-1.014905E+1	2.222863E-2	9.286120E-3	7.205661E-2	3.673486E-2
10/19/2017  17:42:43.054041	1.205504E+0	1.064948E-2	1.137250E-2	-1.014651E+1	2.732853E-2	2.200605E-2	6.951371E-2	3.164702E-2
10/19/2017  17:42:43.055041	4.632404E-1	1.573716E-2	1.646291E-2	-1.012105E+1	1.457878E-2	2.709402E-2	7.714242E-2	3.164702E-2
10/19/2017  17:42:43.056041	-3.792064E+0	1.828100E-2	2.155331E-2	-1.014396E+1	1.712873E-2	1.691808E-2	7.205661E-2	2.910311E-2
10/19/2017  17:42:43.057041	-4.938505E+0	1.319332E-2	1.391770E-2	-1.016687E+1	1.967868E-2	1.946206E-2	6.442791E-2	3.164702E-2
10/19/2017  17:42:43.058041	-3.766644E+0	1.064948E-2	1.646291E-2	-1.015415E+1	1.712873E-2	2.963800E-2	7.459952E-2	2.655919E-2
10/19/2017  17:42:43.059041	-1.799138E+0	1.319332E-2	1.900811E-2	-1.014905E+1	1.967868E-2	1.691808E-2	8.222822E-2	3.164702E-2
10/19/2017  17:42:43.060041	2.873054E+0	1.828100E-2	3.427933E-2	-1.014142E+1	2.732853E-2	1.946206E-2	7.205661E-2	2.910311E-2
10/19/2017  17:42:43.061041	4.998164E+0	1.319332E-2	1.646291E-2	-1.012614E+1	1.712873E-2	1.946206E-2	7.459952E-2	1.892744E-2
10/19/2017  17:42:43.062041	5.003248E+0	8.105642E-3	1.646291E-2	-1.012359E+1	6.928941E-3	1.691808E-2	7.968532E-2	2.910311E-2
10/19/2017  17:42:43.063041	5.003248E+0	1.319332E-2	8.827299E-3	-1.012105E+1	2.477858E-2	1.691808E-2	6.697081E-2	3.927877E-2
10/19/2017  17:42:43.064041	6.615162E-1	1.828100E-2	1.646291E-2	-1.014651E+1	2.477858E-2	1.691808E-2	6.951371E-2	2.910311E-2
10/19/2017  17:42:43.065041	-2.277033E+0	4.741205E-4	2.664372E-2	-1.013887E+1	9.478889E-3	2.200605E-2	7.714242E-2	2.401527E-2
10/19/2017  17:42:43.066041	-3.784438E+0	5.561801E-3	1.391770E-2	-1.014905E+1	1.967868E-2	-8.898203E-4	6.697081E-2	2.910311E-2
10/19/2017  17:42:43.067041	-4.229287E+0	4.741205E-4	1.646291E-2	-1.016687E+1	2.222863E-2	2.200605E-2	6.442791E-2	3.164702E-2
10/19/2017  17:42:43.068041	-1.944031E+0	1.828100E-2	1.900811E-2	-1.014396E+1	1.457878E-2	2.709402E-2	7.968532E-2	2.910311E-2
10/19/2017  17:42:43.069041	-5.001768E-1	1.319332E-2	1.646291E-2	-1.013887E+1	2.477858E-2	1.691808E-2	7.459952E-2	3.673486E-2
10/19/2017  17:42:43.070041	6.564322E-1	1.319332E-2	8.827299E-3	-1.014142E+1	2.477858E-2	1.946206E-2	6.697081E-2	3.164702E-2
10/19/2017  17:42:43.071041	6.233862E-1	1.828100E-2	2.155331E-2	-1.014142E+1	2.987847E-2	2.963800E-2	7.205661E-2	3.673486E-2
10/19/2017  17:42:43.072041	4.845644E+0	5.561801E-3	2.409852E-2	-1.011850E+1	2.222863E-2	1.946206E-2	7.459952E-2	3.673486E-2
10/19/2017  17:42:43.073041	2.148585E+0	1.573716E-2	8.827299E-3	-1.014396E+1	2.732853E-2	1.946206E-2	6.951371E-2	1.383961E-2
10/19/2017  17:42:43.074041	1.548673E+0	1.828100E-2	1.391770E-2	-1.013632E+1	1.712873E-2	3.218199E-2	7.714242E-2	2.401527E-2
10/19/2017  17:42:43.075041	4.657537E+0	5.561801E-3	1.900811E-2	-1.012869E+1	1.967868E-2	1.691808E-2	7.714242E-2	2.655919E-2
10/19/2017  17:42:43.076041	5.003248E+0	1.319332E-2	8.827299E-3	-1.014651E+1	1.967868E-2	1.946206E-2	6.951371E-2	3.164702E-2
10/19/2017  17:42:43.077041	1.106366E+0	2.082484E-2	2.664372E-2	-1.013887E+1	1.457878E-2	2.963800E-2	7.968532E-2	2.910311E-2
10/19/2017  17:42:43.078041	-4.793611E+0	5.561801E-3	2.409852E-2	-1.015160E+1	2.222863E-2	1.437409E-2	6.951371E-2	3.927877E-2
10/19/2017  17:42:43.079041	-4.933421E+0	8.105642E-3	8.827299E-3	-1.015669E+1	2.477858E-2	2.200605E-2	6.951371E-2	2.401527E-2
								
10/19/2017  17:42:43.080041	-1.402586E+0	2.591253E-2	2.409852E-2	-1.014905E+1	2.222863E-2	2.709402E-2	7.459952E-2	2.910311E-2
10/19/2017  17:42:43.081041	3.946064E-1	1.319332E-2	2.155331E-2	-1.013632E+1	2.732853E-2	2.963800E-2	7.459952E-2	3.927877E-2
10/19/2017  17:42:43.082041	1.099027E-1	8.105642E-3	1.137250E-2	-1.013632E+1	2.477858E-2	1.691808E-2	6.697081E-2	3.164702E-2
10/19/2017  17:42:43.083041	-1.773718E+0	2.082484E-2	1.391770E-2	-1.014651E+1	1.829045E-3	1.946206E-2	7.968532E-2	2.910311E-2
10/19/2017  17:42:43.084041	-2.815650E-1	5.561801E-3	2.409852E-2	-1.013632E+1	9.478889E-3	1.691808E-2	7.459952E-2	3.673486E-2
10/19/2017  17:42:43.085041	2.003691E+0	1.319332E-2	1.391770E-2	-1.013887E+1	2.477858E-2	1.946206E-2	6.951371E-2	2.910311E-2
10/19/2017  17:42:43.086041	4.889474E-2	2.082484E-2	1.646291E-2	-1.013123E+1	2.732853E-2	1.946206E-2	7.714242E-2	3.164702E-2
10/19/2017  17:42:43.087041	4.889474E-2	1.064948E-2	1.900811E-2	-1.014396E+1	1.967868E-2	2.200605E-2	7.459952E-2	3.164702E-2
10/19/2017  17:42:43.088041	-1.758466E+0	1.828100E-2	1.391770E-2	-1.015669E+1	3.242842E-2	1.946206E-2	6.697081E-2	3.673486E-2
10/19/2017  17:42:43.089041	-3.525154E+0	1.828100E-2	1.900811E-2	-1.014396E+1	2.222863E-2	2.709402E-2	7.714242E-2	2.147136E-2
10/19/2017  17:42:43.090041	-4.007518E-2	8.105642E-3	2.155331E-2	-1.012105E+1	3.242842E-2	1.437409E-2	8.222822E-2	3.164702E-2
10/19/2017  17:42:43.091041	4.962863E-1	1.319332E-2	1.137250E-2	-1.014142E+1	2.987847E-2	2.200605E-2	6.442791E-2	2.401527E-2
10/19/2017  17:42:43.092041	-1.255150E+0	1.828100E-2	2.155331E-2	-1.014142E+1	1.829045E-3	2.455003E-2	7.205661E-2	2.655919E-2
10/19/2017  17:42:43.093041	-2.177895E+0	8.105642E-3	1.900811E-2	-1.014142E+1	1.967868E-2	1.437409E-2	7.459952E-2	3.673486E-2
10/19/2017  17:42:43.094041	-8.611404E-1	1.573716E-2	1.391770E-2	-1.013632E+1	2.987847E-2	2.455003E-2	7.205661E-2	3.927877E-2
10/19/2017  17:42:43.095041	3.081785E-1	1.064948E-2	2.664372E-2	-1.014905E+1	1.712873E-2	1.946206E-2	7.205661E-2	3.673486E-2
10/19/2017  17:42:43.096041	5.649203E-1	3.017961E-3	1.900811E-2	-1.013378E+1	2.222863E-2	1.183011E-2	6.697081E-2	3.164702E-2
10/19/2017  17:42:43.097041	6.716842E-1	1.319332E-2	1.137250E-2	-1.013632E+1	2.732853E-2	3.218199E-2	7.205661E-2	2.655919E-2
10/19/2017  17:42:43.098041	4.479884E-1	1.064948E-2	1.900811E-2	-1.014651E+1	1.457878E-2	2.709402E-2	7.714242E-2	3.164702E-2
10/19/2017  17:42:43.099041	1.830835E+0	3.017961E-3	1.646291E-2	-1.012869E+1	1.967868E-2	2.455003E-2	6.951371E-2	3.673486E-2
10/19/2017  17:42:43.100041	1.983355E+0	1.319332E-2	1.191689E-3	-1.013632E+1	2.477858E-2	1.437409E-2	6.951371E-2	2.910311E-2
10/19/2017  17:42:43.101041	-7.820515E-2	1.573716E-2	2.155331E-2	-1.012869E+1	2.222863E-2	2.455003E-2	6.951371E-2	3.164702E-2
10/19/2017  17:42:43.102041	6.666002E-1	1.573716E-2	2.664372E-2	-1.013887E+1	2.732853E-2	1.437409E-2	7.459952E-2	4.182269E-2
10/19/2017  17:42:43.103041	7.072721E-1	2.082484E-2	1.137250E-2	-1.013123E+1	2.732853E-2	1.946206E-2	6.951371E-2	3.164702E-2
10/19/2017  17:42:43.104041	4.530724E-1	2.082484E-2	1.646291E-2	-1.014651E+1	9.478889E-3	2.200605E-2	7.459952E-2	2.910311E-2
10/19/2017  17:42:43.105041	1.914721E+0	1.573716E-2	2.664372E-2	-1.013378E+1	1.457878E-2	1.183011E-2	7.459952E-2	3.927877E-2
10/19/2017  17:42:43.106041	1.327807E-1	1.064948E-2	1.137250E-2	-1.013632E+1	2.987847E-2	3.726996E-2	6.697081E-2	3.419094E-2
10/19/2017  17:42:43.107041	-1.903359E+0	3.608789E-2	1.900811E-2	-1.014651E+1	2.732853E-2	2.455003E-2	7.459952E-2	2.910311E-2
10/19/2017  17:42:43.108041	-9.145224E-1	1.064948E-2	2.664372E-2	-1.014651E+1	1.457878E-2	1.183011E-2	7.459952E-2	3.419094E-2
10/19/2017  17:42:43.109041	-7.975905E-1	3.017961E-3	1.391770E-2	-1.015669E+1	2.222863E-2	1.946206E-2	6.442791E-2	2.655919E-2
10/19/2017  17:42:43.110041	7.682801E-1	1.828100E-2	1.646291E-2	-1.014905E+1	2.477858E-2	2.455003E-2	7.714242E-2	2.655919E-2
10/19/2017  17:42:43.111041	7.199821E-1	1.573716E-2	1.900811E-2	-1.013887E+1	1.457878E-2	2.455003E-2	7.459952E-2	3.164702E-2
10/19/2017  17:42:43.112041	-1.481388E+0	1.064948E-2	2.155331E-2	-1.013887E+1	2.222863E-2	1.946206E-2	7.459952E-2	2.910311E-2
								
10/19/2017  17:42:43.113041	-2.879487E+0	1.573716E-2	1.900811E-2	-1.015669E+1	1.202884E-2	2.709402E-2	6.951371E-2	2.147136E-2
10/19/2017  17:42:43.114041	-1.392418E+0	1.319332E-2	1.900811E-2	-1.014651E+1	1.712873E-2	1.946206E-2	8.222822E-2	2.401527E-2
10/19/2017  17:42:43.115041	1.848629E+0	8.105642E-3	2.409852E-2	-1.014142E+1	2.222863E-2	1.946206E-2	7.968532E-2	3.927877E-2
10/19/2017  17:42:43.116041	2.298563E+0	1.064948E-2	2.664372E-2	-1.011596E+1	1.967868E-2	2.709402E-2	6.951371E-2	2.401527E-2
10/19/2017  17:42:43.117041	2.903558E+0	1.064948E-2	1.900811E-2	-1.013632E+1	1.457878E-2	1.946206E-2	8.222822E-2	3.164702E-2
10/19/2017  17:42:43.118041	-2.434350E-1	5.561801E-3	2.155331E-2	-1.014396E+1	2.222863E-2	6.742135E-3	6.697081E-2	3.673486E-2
10/19/2017  17:42:43.119041	-7.925065E-1	5.561801E-3	6.282096E-3	-1.014396E+1	2.477858E-2	2.963800E-2	6.951371E-2	2.401527E-2
10/19/2017  17:42:43.120041	4.479884E-1	1.319332E-2	2.918892E-2	-1.013378E+1	1.712873E-2	1.946206E-2	9.239983E-2	2.910311E-2
10/19/2017  17:42:43.121041	5.013703E-1	1.064948E-2	1.137250E-2	-1.013123E+1	2.477858E-2	9.286120E-3	7.459952E-2	3.927877E-2
10/19/2017  17:42:43.122041	-2.673585E+0	2.336868E-2	1.137250E-2	-1.014651E+1	2.477858E-2	2.963800E-2	6.188501E-2	2.655919E-2
10/19/2017  17:42:43.123041	1.378360E+0	1.064948E-2	2.918892E-2	-1.013887E+1	9.478889E-3	2.963800E-2	7.968532E-2	2.910311E-2
10/19/2017  17:42:43.124041	-4.900088E-1	1.319332E-2	1.900811E-2	-1.013378E+1	2.222863E-2	1.437409E-2	7.205661E-2	3.673486E-2
10/19/2017  17:42:43.125041	1.709106E-1	2.082484E-2	1.646291E-2	-1.013887E+1	2.732853E-2	1.946206E-2	6.951371E-2	2.910311E-2
10/19/2017  17:42:43.126041	4.408421E+0	4.741205E-4	2.409852E-2	-1.013378E+1	9.478889E-3	2.200605E-2	7.968532E-2	3.164702E-2
10/19/2017  17:42:43.127041	-1.244982E+0	8.105642E-3	1.900811E-2	-1.013632E+1	2.222863E-2	1.437409E-2	7.205661E-2	2.910311E-2
10/19/2017  17:42:43.128041	-1.824271E-1	5.561801E-3	1.900811E-2	-1.014651E+1	2.477858E-2	2.709402E-2	7.968532E-2	2.401527E-2
10/19/2017  17:42:43.129041	-2.050795E+0	1.064948E-2	2.409852E-2	-1.014142E+1	1.967868E-2	1.946206E-2	7.968532E-2	3.673486E-2
10/19/2017  17:42:43.130041	-9.933243E-1	5.561801E-3	1.137250E-2	-1.012869E+1	2.222863E-2	1.691808E-2	6.697081E-2	2.910311E-2
10/19/2017  17:42:43.131041	-1.570071E-1	2.082484E-2	1.391770E-2	-1.014651E+1	1.967868E-2	2.455003E-2	7.714242E-2	2.655919E-2
10/19/2017  17:42:43.132041	-1.933863E+0	1.064948E-2	2.409852E-2	-1.013378E+1	1.202884E-2	2.455003E-2	7.459952E-2	4.182269E-2
10/19/2017  17:42:43.133041	-2.432095E+0	1.064948E-2	1.900811E-2	-1.013378E+1	2.987847E-2	2.200605E-2	6.442791E-2	3.164702E-2
10/19/2017  17:42:43.134041	-6.450706E-1	2.082484E-2	1.391770E-2	-1.014905E+1	6.928941E-3	2.455003E-2	7.459952E-2	3.419094E-2
10/19/2017  17:42:43.135041	-2.968170E-1	5.561801E-3	2.409852E-2	-1.014142E+1	1.457878E-2	9.286120E-3	7.968532E-2	3.927877E-2
10/19/2017  17:42:43.136041	-1.888108E+0	1.573716E-2	1.137250E-2	-1.013887E+1	3.242842E-2	1.946206E-2	6.951371E-2	2.147136E-2
10/19/2017  17:42:43.137041	-9.345713E-2	1.319332E-2	1.391770E-2	-1.012614E+1	2.222863E-2	2.455003E-2	7.968532E-2	3.164702E-2
10/19/2017  17:42:43.138041	3.732249E+0	1.828100E-2	1.646291E-2	-1.013378E+1	2.222863E-2	2.200605E-2	7.205661E-2	3.164702E-2
10/19/2017  17:42:43.139041	3.335985E-1	1.319332E-2	2.155331E-2	-1.015415E+1	2.222863E-2	1.691808E-2	6.951371E-2	3.164702E-2
10/19/2017  17:42:43.140041	-3.326878E+0	1.319332E-2	2.155331E-2	-1.014651E+1	1.967868E-2	2.963800E-2	7.459952E-2	3.419094E-2
10/19/2017  17:42:43.141041	-3.598872E+0	1.828100E-2	2.155331E-2	-1.014396E+1	1.967868E-2	1.946206E-2	9.239983E-2	2.910311E-2
10/19/2017  17:42:43.142041	-7.340406E-1	1.573716E-2	3.173413E-2	-1.014142E+1	2.477858E-2	1.946206E-2	7.205661E-2	3.164702E-2
10/19/2017  17:42:43.143041	1.752033E+0	1.573716E-2	1.646291E-2	-1.014396E+1	1.712873E-2	2.963800E-2	7.205661E-2	2.401527E-2
10/19/2017  17:42:43.144041	4.319451E+0	5.561801E-3	2.409852E-2	-1.012105E+1	1.967868E-2	9.286120E-3	7.968532E-2	3.673486E-2
10/19/2017  17:42:43.145041	2.400243E+0	1.573716E-2	1.391770E-2	-1.013123E+1	3.242842E-2	1.946206E-2	6.951371E-2	3.419094E-2
								
10/19/2017  17:42:43.146041	2.987444E+0	1.064948E-2	1.646291E-2	-1.013632E+1	2.477858E-2	1.946206E-2	7.459952E-2	3.419094E-2
10/19/2017  17:42:43.147041	-2.968170E-1	-7.157401E-3	2.155331E-2	-1.013632E+1	1.457878E-2	1.946206E-2	8.222822E-2	3.419094E-2
10/19/2017  17:42:43.148041	-1.377166E+0	1.573716E-2	1.137250E-2	-1.014142E+1	2.732853E-2	9.286120E-3	7.205661E-2	2.910311E-2
10/19/2017  17:42:43.149041	-3.781609E-1	2.336868E-2	1.137250E-2	-1.014905E+1	1.202884E-2	2.455003E-2	6.951371E-2	3.419094E-2
10/19/2017  17:42:43.150041	1.253802E+0	8.105642E-3	2.155331E-2	-1.012869E+1	2.477858E-2	1.691808E-2	7.459952E-2	3.927877E-2
10/19/2017  17:42:43.151041	1.065694E+0	1.064948E-2	1.137250E-2	-1.013378E+1	4.262821E-2	1.946206E-2	7.459952E-2	3.673486E-2
10/19/2017  17:42:43.152041	-7.975905E-1	1.064948E-2	2.409852E-2	-1.014142E+1	2.222863E-2	1.691808E-2	7.459952E-2	2.910311E-2
10/19/2017  17:42:43.153041	-1.534770E+0	1.064948E-2	1.900811E-2	-1.014142E+1	1.457878E-2	1.946206E-2	6.951371E-2	3.419094E-2
10/19/2017  17:42:43.154041	-8.967284E-1	1.319332E-2	8.827299E-3	-1.013887E+1	3.242842E-2	1.946206E-2	7.205661E-2	2.910311E-2
10/19/2017  17:42:43.155041	-4.518788E-1	1.828100E-2	1.646291E-2	-1.014651E+1	1.457878E-2	2.709402E-2	7.968532E-2	3.927877E-2
10/19/2017  17:42:43.156041	3.364275E-2	5.561801E-3	2.664372E-2	-1.014396E+1	1.457878E-2	1.946206E-2	8.222822E-2	3.927877E-2
10/19/2017  17:42:43.157041	-8.328914E-2	1.064948E-2	2.155331E-2	-1.013887E+1	2.732853E-2	1.946206E-2	6.442791E-2	2.147136E-2
10/19/2017  17:42:43.158041	1.175287E-1	1.828100E-2	2.155331E-2	-1.016433E+1	1.712873E-2	1.691808E-2	8.731403E-2	2.655919E-2
10/19/2017  17:42:43.159041	3.056365E-1	1.064948E-2	2.155331E-2	-1.012869E+1	1.457878E-2	1.691808E-2	7.459952E-2	3.673486E-2
10/19/2017  17:42:43.160041	-8.535144E-1	1.573716E-2	1.137250E-2	-1.014142E+1	2.732853E-2	2.963800E-2	7.968532E-2	2.910311E-2
10/19/2017  17:42:43.161041	-1.852520E+0	3.017961E-3	2.409852E-2	-1.014651E+1	2.477858E-2	1.946206E-2	7.205661E-2	3.164702E-2
10/19/2017  17:42:43.162041	-1.727962E+0	1.064948E-2	1.646291E-2	-1.013378E+1	1.967868E-2	1.946206E-2	6.951371E-2	3.673486E-2
10/19/2017  17:42:43.163041	2.562930E+0	1.319332E-2	2.664372E-2	-1.014142E+1	2.477858E-2	2.709402E-2	6.951371E-2	2.655919E-2
10/19/2017  17:42:43.164041	5.005790E+0	2.082484E-2	2.155331E-2	-1.013378E+1	1.457878E-2	2.709402E-2	7.968532E-2	2.147136E-2
10/19/2017  17:42:43.165041	3.727165E+0	8.105642E-3	2.155331E-2	-1.012105E+1	1.967868E-2	4.198150E-3	7.459952E-2	3.927877E-2
10/19/2017  17:42:43.166041	7.021881E-1	4.741205E-4	1.137250E-2	-1.013378E+1	2.222863E-2	2.200605E-2	7.459952E-2	3.164702E-2
10/19/2017  17:42:43.167041	9.513039E-1	1.319332E-2	1.646291E-2	-1.013632E+1	1.712873E-2	2.455003E-2	7.968532E-2	3.164702E-2
10/19/2017  17:42:43.168041	3.295026E+0	1.828100E-2	1.646291E-2	-1.012105E+1	3.242842E-2	1.437409E-2	6.951371E-2	4.182269E-2
10/19/2017  17:42:43.169041	2.941688E+0	1.828100E-2	1.137250E-2	-1.013632E+1	2.732853E-2	2.455003E-2	6.951371E-2	2.910311E-2
10/19/2017  17:42:43.170041	-2.688550E-1	1.828100E-2	1.646291E-2	-1.014651E+1	2.222863E-2	2.455003E-2	7.205661E-2	3.164702E-2
10/19/2017  17:42:43.171041	-3.019296E+0	1.064948E-2	1.900811E-2	-1.015160E+1	1.967868E-2	1.691808E-2	7.459952E-2	4.182269E-2
10/19/2017  17:42:43.172041	-4.651259E+0	1.319332E-2	1.137250E-2	-1.015160E+1	4.007827E-2	1.946206E-2	7.205661E-2	3.673486E-2
10/19/2017  17:42:43.173041	-4.920711E+0	2.082484E-2	2.155331E-2	-1.015415E+1	1.967868E-2	3.218199E-2	6.951371E-2	2.401527E-2
10/19/2017  17:42:43.174041	-2.294827E+0	5.561801E-3	1.646291E-2	-1.013887E+1	1.457878E-2	1.691808E-2	8.477112E-2	3.164702E-2
10/19/2017  17:42:43.175041	-2.230990E-1	3.017961E-3	1.191689E-3	-1.014142E+1	2.732853E-2	1.946206E-2	7.205661E-2	2.910311E-2
10/19/2017  17:42:43.176041	1.891843E+0	2.082484E-2	2.155331E-2	-1.013887E+1	2.477858E-2	3.218199E-2	7.459952E-2	2.401527E-2
10/19/2017  17:42:43.177041	2.095203E+0	5.561801E-3	2.409852E-2	-1.012359E+1	1.457878E-2	1.691808E-2	8.731403E-2	3.673486E-2
10/19/2017  17:42:43.178041	-1.344120E+0	1.064948E-2	1.137250E-2	-1.013378E+1	2.477858E-2	1.691808E-2	6.697081E-2	2.910311E-2
								
10/19/2017  17:42:43.179041	-4.803779E+0	2.082484E-2	1.137250E-2	-1.016687E+1	2.222863E-2	1.691808E-2	7.205661E-2	2.401527E-2
10/19/2017  17:42:43.180041	-2.876945E+0	1.064948E-2	2.664372E-2	-1.014651E+1	1.457878E-2	2.455003E-2	7.968532E-2	3.164702E-2
10/19/2017  17:42:43.181041	-2.299911E+0	8.105642E-3	1.646291E-2	-1.013123E+1	1.967868E-2	1.691808E-2	8.731403E-2	3.164702E-2
10/19/2017  17:42:43.182041	3.005525E-1	1.828100E-2	6.282096E-3	-1.013378E+1	1.712873E-2	1.946206E-2	7.205661E-2	3.164702E-2
10/19/2017  17:42:43.183041	2.298563E+0	1.319332E-2	1.391770E-2	-1.013378E+1	1.712873E-2	2.200605E-2	7.205661E-2	3.164702E-2
10/19/2017  17:42:43.184041	1.909637E+0	8.105642E-3	1.391770E-2	-1.013123E+1	9.478889E-3	1.946206E-2	8.222822E-2	3.927877E-2
10/19/2017  17:42:43.185041	8.521660E-1	1.828100E-2	8.827299E-3	-1.013123E+1	3.497837E-2	2.200605E-2	7.459952E-2	3.164702E-2
10/19/2017  17:42:43.186041	2.700485E-1	2.082484E-2	1.646291E-2	-1.014651E+1	2.222863E-2	1.946206E-2	7.205661E-2	2.910311E-2
10/19/2017  17:42:43.187041	1.258886E+0	1.064948E-2	1.900811E-2	-1.013123E+1	1.202884E-2	1.946206E-2	7.968532E-2	3.927877E-2
10/19/2017  17:42:43.188041	1.297016E+0	8.105642E-3	1.137250E-2	-1.013378E+1	2.732853E-2	1.654165E-3	7.459952E-2	2.910311E-2
10/19/2017  17:42:43.189041	5.267903E-1	2.082484E-2	1.900811E-2	-1.014396E+1	2.222863E-2	1.946206E-2	7.714242E-2	3.673486E-2
10/19/2017  17:42:43.190041	2.725905E-1	2.082484E-2	2.409852E-2	-1.013632E+1	1.712873E-2	2.963800E-2	8.222822E-2	3.673486E-2
10/19/2017  17:42:43.191041	1.233466E+0	5.561801E-3	1.900811E-2	-1.012614E+1	2.477858E-2	1.437409E-2	8.477112E-2	3.164702E-2
10/19/2017  17:42:43.192041	4.586361E+0	8.105642E-3	6.282096E-3	-1.012869E+1	2.987847E-2	1.691808E-2	6.951371E-2	2.910311E-2
10/19/2017  17:42:43.193041	5.008332E+0	1.828100E-2	2.155331E-2	-1.013632E+1	1.457878E-2	2.963800E-2	6.951371E-2	2.401527E-2
10/19/2017  17:42:43.194041	4.937156E+0	1.319332E-2	2.664372E-2	-1.012614E+1	1.457878E-2	2.709402E-2	8.222822E-2	3.419094E-2
10/19/2017  17:42:43.195041	-4.506365E+0	1.064948E-2	1.900811E-2	-1.013887E+1	2.222863E-2	1.183011E-2	7.968532E-2	2.401527E-2
10/19/2017  17:42:43.196041	-3.100640E+0	1.573716E-2	8.827299E-3	-1.015160E+1	2.477858E-2	2.200605E-2	6.188501E-2	2.655919E-2
10/19/2017  17:42:43.197041	-4.918169E+0	1.064948E-2	2.409852E-2	-1.015415E+1	1.712873E-2	2.200605E-2	7.968532E-2	3.927877E-2
10/19/2017  17:42:43.198041	-4.923253E+0	5.561801E-3	1.646291E-2	-1.012614E+1	1.967868E-2	2.709402E-2	7.968532E-2	2.910311E-2
10/19/2017  17:42:43.199041	-6.628646E-1	1.828100E-2	1.137250E-2	-1.014142E+1	2.222863E-2	1.946206E-2	6.951371E-2	2.401527E-2
10/19/2017  17:42:43.200041	8.979220E-1	1.319332E-2	2.664372E-2	-1.014142E+1	1.457878E-2	1.946206E-2	6.951371E-2	2.910311E-2
10/19/2017  17:42:43.201041	-8.941864E-1	-7.157401E-3	1.137250E-2	-1.012869E+1	1.712873E-2	9.286120E-3	7.459952E-2	3.927877E-2
10/19/2017  17:42:43.202041	1.317352E+0	2.591253E-2	1.137250E-2	-1.013887E+1	2.987847E-2	1.946206E-2	6.188501E-2	2.401527E-2
10/19/2017  17:42:43.203041	2.509549E+0	2.082484E-2	1.900811E-2	-1.014142E+1	2.477858E-2	2.455003E-2	7.205661E-2	3.164702E-2
10/19/2017  17:42:43.204041	7.530281E-1	8.105642E-3	1.900811E-2	-1.013123E+1	1.967868E-2	1.946206E-2	6.951371E-2	3.164702E-2
10/19/2017  17:42:43.205041	-5.688107E-1	1.319332E-2	1.191689E-3	-1.013378E+1	2.477858E-2	3.218199E-2	6.697081E-2	2.401527E-2
10/19/2017  17:42:43.206041	9.258839E-1	1.828100E-2	2.155331E-2	-1.015160E+1	1.457878E-2	2.709402E-2	8.222822E-2	2.910311E-2
10/19/2017  17:42:43.207041	2.853005E-1	8.105642E-3	2.155331E-2	-1.013887E+1	2.222863E-2	2.709402E-2	7.205661E-2	4.182269E-2
10/19/2017  17:42:43.208041	-7.314986E-1	1.319332E-2	8.827299E-3	-1.013378E+1	2.222863E-2	2.200605E-2	6.697081E-2	2.655919E-2
10/19/2017  17:42:43.209041	-4.722148E-1	1.828100E-2	1.391770E-2	-1.015415E+1	2.222863E-2	2.455003E-2	7.205661E-2	2.147136E-2
10/19/2017  17:42:43.210041	-2.648165E+0	5.561801E-3	1.900811E-2	-1.015415E+1	6.928941E-3	1.946206E-2	8.222822E-2	2.910311E-2
10/19/2017  17:42:43.211041	-2.078757E+0	1.064948E-2	1.646291E-2	-1.013632E+1	1.967868E-2	1.946206E-2	7.459952E-2	3.673486E-2
								
10/19/2017  17:42:43.212041	-1.415296E+0	1.573716E-2	1.646291E-2	-1.013632E+1	1.967868E-2	2.709402E-2	7.205661E-2	1.892744E-2
10/19/2017  17:42:43.213041	-8.052165E-1	1.319332E-2	1.900811E-2	-1.014142E+1	1.202884E-2	2.200605E-2	7.714242E-2	3.673486E-2
10/19/2017  17:42:43.214041	4.301944E-1	5.561801E-3	1.900811E-2	-1.013123E+1	1.457878E-2	1.437409E-2	6.697081E-2	3.673486E-2
10/19/2017  17:42:43.215041	-1.232272E+0	1.573716E-2	6.282096E-3	-1.013378E+1	2.477858E-2	2.963800E-2	7.205661E-2	2.910311E-2
10/19/2017  17:42:43.216041	-4.951215E+0	2.082484E-2	2.155331E-2	-1.015160E+1	1.457878E-2	2.963800E-2	8.222822E-2	3.927877E-2
10/19/2017  17:42:43.217041	-4.930879E+0	8.105642E-3	3.427933E-2	-1.014905E+1	1.457878E-2	1.183011E-2	8.222822E-2	3.927877E-2
10/19/2017  17:42:43.218041	-2.876945E+0	8.105642E-3	8.827299E-3	-1.014396E+1	2.477858E-2	1.691808E-2	6.951371E-2	2.910311E-2
10/19/2017  17:42:43.219041	3.772921E+0	2.082484E-2	1.900811E-2	-1.015415E+1	2.222863E-2	1.946206E-2	6.951371E-2	3.164702E-2
10/19/2017  17:42:43.220041	4.199977E+0	1.828100E-2	1.900811E-2	-1.012869E+1	1.967868E-2	2.200605E-2	7.459952E-2	3.419094E-2
10/19/2017  17:42:43.221041	2.603602E+0	1.064948E-2	1.900811E-2	-1.014142E+1	1.967868E-2	1.946206E-2	7.968532E-2	3.419094E-2
10/19/2017  17:42:43.222041	2.140959E+0	1.319332E-2	1.646291E-2	-1.014396E+1	1.967868E-2	2.709402E-2	7.205661E-2	2.401527E-2
10/19/2017  17:42:43.223041	1.075862E+0	1.828100E-2	2.409852E-2	-1.013632E+1	1.967868E-2	1.946206E-2	8.477112E-2	3.164702E-2
10/19/2017  17:42:43.224041	7.939871E-2	8.105642E-3	2.918892E-2	-1.012869E+1	2.222863E-2	1.946206E-2	7.205661E-2	3.164702E-2
10/19/2017  17:42:43.225041	1.091114E+0	2.082484E-2	1.646291E-2	-1.013378E+1	1.712873E-2	1.946206E-2	7.205661E-2	2.910311E-2
10/19/2017  17:42:43.226041	1.828293E+0	1.064948E-2	1.646291E-2	-1.013632E+1	2.222863E-2	9.286120E-3	7.459952E-2	2.401527E-2
10/19/2017  17:42:43.227041	1.749491E+0	1.064948E-2	2.155331E-2	-1.013632E+1	1.712873E-2	1.183011E-2	7.205661E-2	3.927877E-2
10/19/2017  17:42:43.228041	8.597920E-1	1.064948E-2	1.391770E-2	-1.013632E+1	2.732853E-2	1.691808E-2	6.951371E-2	2.910311E-2
10/19/2017  17:42:43.229041	3.081785E-1	3.100021E-2	2.409852E-2	-1.014651E+1	2.477858E-2	2.709402E-2	7.459952E-2	2.147136E-2
10/19/2017  17:42:43.230041	-8.074715E-2	8.105642E-3	2.409852E-2	-1.013123E+1	1.457878E-2	2.200605E-2	7.459952E-2	3.673486E-2
10/19/2017  17:42:43.231041	-1.095004E+0	-7.157401E-3	1.137250E-2	-1.015160E+1	1.967868E-2	1.691808E-2	6.697081E-2	2.910311E-2
10/19/2017  17:42:43.232041	-2.129310E-1	1.573716E-2	1.137250E-2	-1.014651E+1	1.457878E-2	2.963800E-2	7.205661E-2	2.655919E-2
10/19/2017  17:42:43.233041	1.530879E+0	5.561801E-3	2.918892E-2	-1.012105E+1	2.222863E-2	1.437409E-2	7.968532E-2	3.673486E-2
10/19/2017  17:42:43.234041	4.901568E+0	8.105642E-3	2.155331E-2	-1.013887E+1	2.222863E-2	1.691808E-2	7.459952E-2	2.910311E-2
10/19/2017  17:42:43.235041	5.008332E+0	1.064948E-2	2.155331E-2	-1.012359E+1	9.478889E-3	2.200605E-2	6.442791E-2	3.164702E-2
10/19/2017  17:42:43.236041	4.975286E+0	1.319332E-2	1.137250E-2	-1.014142E+1	2.477858E-2	1.691808E-2	6.951371E-2	2.910311E-2
10/19/2017  17:42:43.237041	-4.580083E+0	1.064948E-2	1.900811E-2	-1.014142E+1	2.222863E-2	1.691808E-2	7.459952E-2	4.691052E-2
10/19/2017  17:42:43.238041	4.342329E+0	1.319332E-2	1.137250E-2	-1.012359E+1	3.242842E-2	2.455003E-2	6.951371E-2	2.401527E-2
10/19/2017  17:42:43.239041	-4.976635E+0	2.336868E-2	1.391770E-2	-1.014396E+1	2.477858E-2	2.200605E-2	7.205661E-2	1.892744E-2
10/19/2017  17:42:43.240041	-4.384349E+0	8.105642E-3	2.155331E-2	-1.016433E+1	2.222863E-2	9.286120E-3	7.205661E-2	3.673486E-2
10/19/2017  17:42:43.241041	-3.196949E-1	4.741205E-4	1.137250E-2	-1.014651E+1	2.222863E-2	2.963800E-2	6.951371E-2	2.401527E-2
10/19/2017  17:42:43.242041	1.830835E+0	2.591253E-2	2.409852E-2	-1.014142E+1	1.712873E-2	2.963800E-2	9.239983E-2	3.164702E-2
10/19/2017  17:42:43.243041	3.439920E+0	1.319332E-2	2.155331E-2	-1.013632E+1	2.222863E-2	2.963800E-2	7.459952E-2	3.164702E-2
10/19/2017  17:42:43.244041	2.418037E+0	8.105642E-3	1.391770E-2	-1.013378E+1	2.477858E-2	2.200605E-2	6.951371E-2	2.655919E-2
								
10/19/2017  17:42:43.245041	3.793544E-1	2.082484E-2	1.137250E-2	-1.014396E+1	1.457878E-2	1.946206E-2	7.459952E-2	1.892744E-2
10/19/2017  17:42:43.246041	-2.721883E+0	4.741205E-4	2.409852E-2	-1.013123E+1	1.712873E-2	1.946206E-2	8.222822E-2	3.419094E-2
10/19/2017  17:42:43.247041	-2.388881E+0	5.561801E-3	1.137250E-2	-1.013887E+1	2.987847E-2	3.218199E-2	6.697081E-2	3.164702E-2
10/19/2017  17:42:43.248041	-8.560564E-1	4.741205E-4	1.391770E-2	-1.014142E+1	1.712873E-2	2.963800E-2	7.205661E-2	2.401527E-2
10/19/2017  17:42:43.249041	-1.079752E+0	1.064948E-2	1.900811E-2	-1.013887E+1	1.712873E-2	4.198150E-3	8.222822E-2	2.147136E-2
10/19/2017  17:42:43.250041	-1.280570E+0	3.100021E-2	1.900811E-2	-1.013378E+1	2.222863E-2	2.455003E-2	7.205661E-2	3.164702E-2
10/19/2017  17:42:43.251041	1.670689E+0	1.319332E-2	1.900811E-2	-1.013378E+1	2.222863E-2	2.200605E-2	7.205661E-2	3.419094E-2
10/19/2017  17:42:43.252041	3.742417E+0	2.082484E-2	2.664372E-2	-1.013632E+1	2.222863E-2	1.946206E-2	7.968532E-2	2.910311E-2
10/19/2017  17:42:43.253041	2.308731E+0	8.105642E-3	1.137250E-2	-1.013123E+1	1.967868E-2	1.183011E-2	7.205661E-2	3.673486E-2
10/19/2017  17:42:43.254041	-2.401591E+0	1.064948E-2	1.646291E-2	-1.013887E+1	2.477858E-2	1.946206E-2	6.442791E-2	2.910311E-2
10/19/2017  17:42:43.255041	-2.592241E+0	1.828100E-2	1.646291E-2	-1.014142E+1	1.967868E-2	2.455003E-2	7.968532E-2	2.401527E-2
10/19/2017  17:42:43.256041	-2.719341E+0	8.105642E-3	2.918892E-2	-1.013378E+1	1.712873E-2	1.437409E-2	8.222822E-2	3.164702E-2
10/19/2017  17:42:43.257041	-3.070136E+0	1.573716E-2	8.827299E-3	-1.015160E+1	2.477858E-2	1.946206E-2	6.442791E-2	2.910311E-2
10/19/2017  17:42:43.258041	1.734526E-1	1.319332E-2	1.391770E-2	-1.013887E+1	1.967868E-2	2.709402E-2	7.459952E-2	1.383961E-2
10/19/2017  17:42:43.259041	2.280769E+0	1.319332E-2	2.155331E-2	-1.014651E+1	2.222863E-2	1.437409E-2	8.222822E-2	3.164702E-2
10/19/2017  17:42:43.260041	4.988283E-1	1.573716E-2	2.664372E-2	-1.013887E+1	2.477858E-2	1.946206E-2	7.459952E-2	2.910311E-2
10/19/2017  17:42:43.261041	-4.791069E+0	1.573716E-2	1.646291E-2	-1.015160E+1	1.967868E-2	2.963800E-2	6.951371E-2	2.401527E-2
10/19/2017  17:42:43.262041	-4.933421E+0	5.561801E-3	1.900811E-2	-1.015160E+1	1.202884E-2	1.946206E-2	7.968532E-2	2.655919E-2
10/19/2017  17:42:43.263041	1.383444E+0	1.064948E-2	1.900811E-2	-1.014142E+1	2.222863E-2	1.437409E-2	7.968532E-2	3.927877E-2
10/19/2017  17:42:43.264041	4.083045E+0	1.319332E-2	3.173413E-2	-1.014651E+1	1.967868E-2	2.455003E-2	6.951371E-2	2.401527E-2
10/19/2017  17:42:43.265041	1.683399E+0	8.105642E-3	2.155331E-2	-1.013123E+1	1.202884E-2	1.946206E-2	8.477112E-2	2.910311E-2
10/19/2017  17:42:43.266041	5.166223E-1	1.319332E-2	1.646291E-2	-1.013887E+1	1.967868E-2	9.286120E-3	7.205661E-2	2.655919E-2
10/19/2017  17:42:43.267041	2.497126E-1	8.105642E-3	1.900811E-2	-1.015160E+1	1.967868E-2	2.963800E-2	7.205661E-2	3.164702E-2
10/19/2017  17:42:43.268041	1.764743E+0	1.319332E-2	1.646291E-2	-1.013887E+1	2.222863E-2	1.183011E-2	7.714242E-2	4.182269E-2
10/19/2017  17:42:43.269041	5.598363E-1	2.845637E-2	1.391770E-2	-1.012869E+1	3.497837E-2	1.946206E-2	7.205661E-2	2.147136E-2
10/19/2017  17:42:43.270041	-5.306807E-1	2.336868E-2	1.646291E-2	-1.014651E+1	1.712873E-2	2.455003E-2	8.222822E-2	2.910311E-2
10/19/2017  17:42:43.271041	3.412245E-1	-2.069720E-3	1.900811E-2	-1.013887E+1	1.967868E-2	1.183011E-2	7.205661E-2	3.927877E-2
10/19/2017  17:42:43.272041	-2.586870E-1	1.573716E-2	1.137250E-2	-1.014651E+1	2.477858E-2	2.455003E-2	6.951371E-2	2.147136E-2
10/19/2017  17:42:43.273041	6.055922E-1	2.082484E-2	2.155331E-2	-1.013887E+1	2.477858E-2	2.963800E-2	8.731403E-2	2.910311E-2
10/19/2017  17:42:43.274041	4.693125E+0	5.561801E-3	1.900811E-2	-1.013632E+1	2.222863E-2	1.691808E-2	7.205661E-2	3.673486E-2
10/19/2017  17:42:43.275041	3.539058E+0	1.064948E-2	1.137250E-2	-1.013632E+1	2.732853E-2	1.946206E-2	6.951371E-2	2.147136E-2
10/19/2017  17:42:43.276041	9.465070E-2	1.828100E-2	2.155331E-2	-1.014905E+1	1.712873E-2	2.455003E-2	8.222822E-2	2.910311E-2
10/19/2017  17:42:43.277041	6.160473E-2	1.064948E-2	1.900811E-2	-1.013123E+1	2.477858E-2	1.437409E-2	7.714242E-2	4.182269E-2
								
10/19/2017  17:42:43.278041	1.535963E+0	1.064948E-2	1.646291E-2	-1.012869E+1	2.477858E-2	2.709402E-2	7.205661E-2	2.910311E-2
10/19/2017  17:42:43.279041	-3.756189E-1	2.336868E-2	2.409852E-2	-1.014651E+1	2.222863E-2	2.455003E-2	7.459952E-2	2.147136E-2
10/19/2017  17:42:43.280041	-1.959283E+0	8.105642E-3	1.646291E-2	-1.014142E+1	2.477858E-2	4.198150E-3	7.714242E-2	3.164702E-2
10/19/2017  17:42:43.281041	-1.494098E+0	5.561801E-3	1.900811E-2	-1.013887E+1	2.477858E-2	2.709402E-2	6.951371E-2	3.164702E-2
10/19/2017  17:42:43.282041	-1.636450E+0	1.319332E-2	1.391770E-2	-1.014396E+1	1.967868E-2	2.709402E-2	9.239983E-2	2.910311E-2
10/19/2017  17:42:43.283041	2.156211E+0	5.561801E-3	6.282096E-3	-1.013887E+1	2.222863E-2	9.286120E-3	7.714242E-2	3.927877E-2
10/19/2017  17:42:43.284041	-2.340583E+0	5.561801E-3	8.827299E-3	-1.014396E+1	2.732853E-2	1.946206E-2	6.951371E-2	2.910311E-2
10/19/2017  17:42:43.285041	-3.715804E+0	1.064948E-2	8.827299E-3	-1.014651E+1	9.478889E-3	2.963800E-2	7.459952E-2	3.419094E-2
10/19/2017  17:42:43.286041	-1.661870E+0	8.105642E-3	2.155331E-2	-1.014905E+1	2.477858E-2	2.200605E-2	7.714242E-2	3.673486E-2
10/19/2017  17:42:43.287041	-4.336051E+0	1.064948E-2	1.137250E-2	-1.014396E+1	2.987847E-2	2.455003E-2	6.951371E-2	2.147136E-2
10/19/2017  17:42:43.288041	4.688041E+0	1.064948E-2	1.900811E-2	-1.014142E+1	1.457878E-2	1.946206E-2	7.205661E-2	3.419094E-2
10/19/2017  17:42:43.289041	2.201967E+0	1.319332E-2	2.409852E-2	-1.012614E+1	1.712873E-2	1.946206E-2	7.205661E-2	3.164702E-2
10/19/2017  17:42:43.290041	-2.810853E+0	3.100021E-2	1.137250E-2	-1.013632E+1	3.497837E-2	1.946206E-2	7.205661E-2	3.419094E-2
10/19/2017  17:42:43.291041	-9.374004E-1	1.064948E-2	1.900811E-2	-1.014651E+1	1.967868E-2	2.709402E-2	7.459952E-2	3.927877E-2
10/19/2017  17:42:43.292041	6.414672E-2	1.319332E-2	1.900811E-2	-1.013123E+1	1.202884E-2	1.946206E-2	6.951371E-2	3.164702E-2
10/19/2017  17:42:43.293041	1.086030E+0	1.319332E-2	1.391770E-2	-1.013632E+1	2.477858E-2	1.946206E-2	6.951371E-2	3.164702E-2
10/19/2017  17:42:43.294041	1.332604E+0	1.828100E-2	1.391770E-2	-1.014905E+1	9.478889E-3	2.709402E-2	6.697081E-2	2.147136E-2
10/19/2017  17:42:43.295041	9.385939E-1	5.561801E-3	2.409852E-2	-1.012614E+1	1.457878E-2	1.946206E-2	7.968532E-2	3.673486E-2
10/19/2017  17:42:43.296041	-9.571210E-3	1.573716E-2	6.282096E-3	-1.013887E+1	2.477858E-2	1.946206E-2	7.459952E-2	2.655919E-2
10/19/2017  17:42:43.297041	-3.196949E-1	1.573716E-2	1.646291E-2	-1.013632E+1	1.967868E-2	2.455003E-2	6.951371E-2	3.164702E-2
10/19/2017  17:42:43.298041	2.370026E-1	5.561801E-3	2.409852E-2	-1.014142E+1	1.202884E-2	1.946206E-2	7.968532E-2	4.945444E-2
10/19/2017  17:42:43.299041	6.132182E-1	8.105642E-3	1.137250E-2	-1.014651E+1	2.477858E-2	6.742135E-3	7.205661E-2	2.910311E-2
10/19/2017  17:42:43.300041	2.458709E+0	2.336868E-2	2.155331E-2	-1.014142E+1	2.477858E-2	2.963800E-2	7.205661E-2	3.164702E-2
10/19/2017  17:42:43.301041	-8.585984E-1	1.064948E-2	1.900811E-2	-1.014651E+1	2.222863E-2	2.200605E-2	6.697081E-2	3.164702E-2
10/19/2017  17:42:43.302041	-1.890650E+0	4.741205E-4	1.646291E-2	-1.014142E+1	2.222863E-2	1.437409E-2	6.951371E-2	2.910311E-2
10/19/2017  17:42:43.303041	3.056365E-1	1.828100E-2	1.646291E-2	-1.014651E+1	2.222863E-2	2.963800E-2	8.985693E-2	2.910311E-2
10/19/2017  17:42:43.304041	3.768124E-1	1.319332E-2	1.900811E-2	-1.013123E+1	2.987847E-2	2.709402E-2	7.459952E-2	3.927877E-2
10/19/2017  17:42:43.305041	-1.039080E+0	1.064948E-2	1.137250E-2	-1.013378E+1	2.477858E-2	1.691808E-2	6.951371E-2	2.910311E-2
10/19/2017  17:42:43.306041	-1.211936E+0	2.082484E-2	2.155331E-2	-1.014396E+1	4.378993E-3	1.183011E-2	7.968532E-2	2.401527E-2
10/19/2017  17:42:43.307041	-1.199226E+0	1.319332E-2	2.664372E-2	-1.013887E+1	9.478889E-3	1.437409E-2	7.714242E-2	3.927877E-2
10/19/2017  17:42:43.308041	-1.733046E+0	1.064948E-2	1.391770E-2	-1.014142E+1	2.987847E-2	3.726996E-2	6.697081E-2	3.673486E-2
10/19/2017  17:42:43.309041	-3.222369E-1	3.100021E-2	2.155331E-2	-1.014396E+1	2.222863E-2	2.709402E-2	7.459952E-2	2.147136E-2
10/19/2017  17:42:43.310041	2.918810E+0	1.319332E-2	2.664372E-2	-1.013378E+1	1.457878E-2	1.654165E-3	7.968532E-2	2.401527E-2
								
10/19/2017  17:42:43.311041	2.354487E+0	5.561801E-3	1.137250E-2	-1.013123E+1	1.457878E-2	1.946206E-2	6.951371E-2	2.910311E-2
10/19/2017  17:42:43.312041	-1.461052E+0	2.082484E-2	1.900811E-2	-1.013632E+1	2.222863E-2	2.455003E-2	7.968532E-2	2.655919E-2
10/19/2017  17:42:43.313041	-1.308532E+0	3.017961E-3	2.155331E-2	-1.012869E+1	2.477858E-2	1.183011E-2	8.222822E-2	3.164702E-2
10/19/2017  17:42:43.314041	4.810343E-1	1.319332E-2	8.827299E-3	-1.014651E+1	2.732853E-2	1.946206E-2	6.697081E-2	2.910311E-2
10/19/2017  17:42:43.315041	2.862886E+0	1.573716E-2	1.646291E-2	-1.014651E+1	9.478889E-3	1.946206E-2	6.697081E-2	4.182269E-2
10/19/2017  17:42:43.316041	-1.341578E+0	1.064948E-2	2.409852E-2	-1.013887E+1	1.967868E-2	1.437409E-2	7.714242E-2	3.927877E-2
10/19/2017  17:42:43.317041	7.123561E-1	1.573716E-2	8.827299E-3	-1.013887E+1	2.732853E-2	1.946206E-2	6.951371E-2	1.892744E-2
10/19/2017  17:42:43.318041	-1.976790E-1	1.828100E-2	2.155331E-2	-1.012869E+1	1.457878E-2	2.963800E-2	7.205661E-2	2.147136E-2
10/19/2017  17:42:43.319041	-3.014212E+0	3.017961E-3	2.155331E-2	-1.013123E+1	1.457878E-2	1.183011E-2	7.968532E-2	2.401527E-2
10/19/2017  17:42:43.320041	-2.119429E+0	1.319332E-2	1.137250E-2	-1.015160E+1	2.987847E-2	1.437409E-2	6.697081E-2	2.655919E-2
10/19/2017  17:42:43.321041	-3.425729E-1	1.828100E-2	2.409852E-2	-1.014396E+1	2.222863E-2	2.963800E-2	7.714242E-2	2.401527E-2
10/19/2017  17:42:43.322041	-4.696728E-1	8.105642E-3	1.900811E-2	-1.012614E+1	2.222863E-2	1.437409E-2	6.442791E-2	3.673486E-2
10/19/2017  17:42:43.323041	9.284259E-1	1.064948E-2	3.736893E-3	-1.013887E+1	2.987847E-2	1.691808E-2	7.205661E-2	2.401527E-2
10/19/2017  17:42:43.324041	3.295026E+0	1.573716E-2	2.664372E-2	-1.014396E+1	1.457878E-2	2.455003E-2	6.188501E-2	3.164702E-2
10/19/2017  17:42:43.325041	9.004640E-1	1.064948E-2	3.173413E-2	-1.012869E+1	2.222863E-2	1.946206E-2	7.459952E-2	3.673486E-2
10/19/2017  17:42:43.326041	-6.196507E-1	2.082484E-2	8.827299E-3	-1.013632E+1	2.477858E-2	2.200605E-2	6.951371E-2	3.164702E-2
10/19/2017  17:42:43.327041	1.304642E+0	1.319332E-2	1.900811E-2	-1.014142E+1	2.732853E-2	3.472597E-2	7.205661E-2	2.401527E-2
10/19/2017  17:42:43.328041	4.987996E+0	1.064948E-2	1.900811E-2	-1.013632E+1	2.222863E-2	1.946206E-2	7.459952E-2	3.927877E-2
10/19/2017  17:42:43.329041	5.015958E+0	1.064948E-2	1.137250E-2	-1.012105E+1	2.987847E-2	3.218199E-2	7.205661E-2	2.910311E-2
10/19/2017  17:42:43.330041	1.441909E+0	2.591253E-2	1.646291E-2	-1.013632E+1	1.967868E-2	2.709402E-2	7.714242E-2	2.655919E-2
10/19/2017  17:42:43.331041	-1.262776E+0	1.064948E-2	2.409852E-2	-1.014142E+1	1.457878E-2	1.946206E-2	7.968532E-2	3.673486E-2
10/19/2017  17:42:43.332041	-3.237908E+0	5.561801E-3	1.646291E-2	-1.015669E+1	1.457878E-2	1.946206E-2	7.205661E-2	2.910311E-2
10/19/2017  17:42:43.333041	-8.611404E-1	1.064948E-2	1.646291E-2	-1.014142E+1	1.712873E-2	2.963800E-2	7.459952E-2	2.401527E-2
10/19/2017  17:42:43.334041	1.658266E-1	1.573716E-2	2.409852E-2	-1.013632E+1	2.477858E-2	1.691808E-2	8.222822E-2	3.673486E-2
10/19/2017  17:42:43.335041	-1.211936E+0	5.561801E-3	2.664372E-2	-1.012359E+1	2.732853E-2	1.946206E-2	7.459952E-2	4.182269E-2
10/19/2017  17:42:43.336041	9.973469E-2	1.319332E-2	1.137250E-2	-1.014142E+1	2.987847E-2	2.709402E-2	7.205661E-2	1.892744E-2
10/19/2017  17:42:43.337041	-8.535144E-1	2.082484E-2	1.900811E-2	-1.015669E+1	1.967868E-2	1.437409E-2	8.222822E-2	3.164702E-2
10/19/2017  17:42:43.338041	-3.649712E+0	8.105642E-3	1.900811E-2	-1.013632E+1	1.967868E-2	1.437409E-2	7.459952E-2	2.401527E-2
10/19/2017  17:42:43.339041	-3.151480E+0	1.319332E-2	1.900811E-2	-1.012359E+1	2.987847E-2	2.455003E-2	6.951371E-2	2.910311E-2
10/19/2017  17:42:43.340041	-1.011118E+0	1.064948E-2	1.391770E-2	-1.014142E+1	2.222863E-2	1.691808E-2	7.205661E-2	2.147136E-2
10/19/2017  17:42:43.341041	-2.859151E+0	8.105642E-3	2.155331E-2	-1.013887E+1	2.222863E-2	1.691808E-2	7.205661E-2	3.673486E-2
10/19/2017  17:42:43.342041	-1.926237E+0	2.591253E-2	1.900811E-2	-1.014142E+1	2.477858E-2	2.455003E-2	6.951371E-2	2.147136E-2
10/19/2017  17:42:43.343041	1.596971E+0	2.336868E-2	2.409852E-2	-1.014142E+1	1.457878E-2	2.963800E-2	9.239983E-2	3.164702E-2
								
10/19/2017  17:42:43.344041	2.461251E+0	1.064948E-2	2.664372E-2	-1.012105E+1	2.222863E-2	1.183011E-2	7.205661E-2	3.419094E-2
10/19/2017  17:42:43.345041	2.247723E+0	8.105642E-3	1.137250E-2	-1.013378E+1	2.477858E-2	1.946206E-2	5.934210E-2	3.164702E-2
10/19/2017  17:42:43.346041	-1.611030E+0	1.573716E-2	1.137250E-2	-1.014396E+1	1.457878E-2	2.709402E-2	7.459952E-2	3.164702E-2
10/19/2017  17:42:43.347041	-2.706631E+0	5.561801E-3	1.391770E-2	-1.013123E+1	2.222863E-2	1.437409E-2	7.205661E-2	3.673486E-2
10/19/2017  17:42:43.348041	-1.918611E+0	1.064948E-2	1.137250E-2	-1.014651E+1	3.242842E-2	1.437409E-2	6.442791E-2	3.673486E-2
10/19/2017  17:42:43.349041	-2.325331E+0	8.105642E-3	1.900811E-2	-1.014651E+1	1.712873E-2	1.691808E-2	7.205661E-2	2.910311E-2
10/19/2017  17:42:43.350041	-1.750840E+0	1.319332E-2	1.646291E-2	-1.013887E+1	2.222863E-2	1.437409E-2	7.459952E-2	2.910311E-2
10/19/2017  17:42:43.351041	2.789168E+0	1.828100E-2	1.137250E-2	-1.014396E+1	3.242842E-2	2.200605E-2	6.697081E-2	3.419094E-2
10/19/2017  17:42:43.352041	1.553757E+0	1.573716E-2	2.155331E-2	-1.013378E+1	1.967868E-2	2.963800E-2	7.714242E-2	2.910311E-2
10/19/2017  17:42:43.353041	-4.915627E+0	1.064948E-2	2.664372E-2	-1.014905E+1	1.967868E-2	1.691808E-2	7.968532E-2	3.419094E-2
10/19/2017  17:42:43.354041	-4.933421E+0	1.064948E-2	1.137250E-2	-1.014905E+1	2.732853E-2	1.183011E-2	6.951371E-2	3.673486E-2
10/19/2017  17:42:43.355041	-4.915627E+0	2.082484E-2	1.391770E-2	-1.016178E+1	3.242842E-2	1.946206E-2	6.188501E-2	3.419094E-2
10/19/2017  17:42:43.356041	9.843499E-1	1.828100E-2	1.391770E-2	-1.014396E+1	1.967868E-2	1.946206E-2	7.714242E-2	2.910311E-2
10/19/2017  17:42:43.357041	4.993080E+0	1.828100E-2	1.646291E-2	-1.013123E+1	1.457878E-2	1.691808E-2	7.968532E-2	3.927877E-2
10/19/2017  17:42:43.358041	5.008332E+0	5.561801E-3	1.900811E-2	-1.012614E+1	2.222863E-2	1.437409E-2	7.205661E-2	3.673486E-2
10/19/2017  17:42:43.359041	5.013416E+0	1.828100E-2	1.137250E-2	-1.013632E+1	2.732853E-2	2.963800E-2	6.951371E-2	2.910311E-2
10/19/2017  17:42:43.360041	4.067793E+0	1.064948E-2	1.900811E-2	-1.011086E+1	2.477858E-2	2.455003E-2	7.459952E-2	3.164702E-2
10/19/2017  17:42:43.361041	1.932515E+0	1.828100E-2	1.646291E-2	-1.013887E+1	1.712873E-2	2.455003E-2	7.459952E-2	3.164702E-2
10/19/2017  17:42:43.362041	4.835763E-1	5.561801E-3	1.900811E-2	-1.013887E+1	1.967868E-2	1.437409E-2	6.951371E-2	3.164702E-2
10/19/2017  17:42:43.363041	-1.697171E-1	5.561801E-3	2.664372E-2	-1.013632E+1	2.222863E-2	2.455003E-2	7.205661E-2	2.401527E-2
10/19/2017  17:42:43.364041	2.725905E-1	2.336868E-2	2.155331E-2	-1.014905E+1	1.202884E-2	2.963800E-2	7.968532E-2	3.164702E-2
10/19/2017  17:42:43.365041	7.733641E-1	1.573716E-2	1.391770E-2	-1.013632E+1	2.732853E-2	2.709402E-2	7.459952E-2	3.673486E-2
10/19/2017  17:42:43.366041	1.785366E-1	5.561801E-3	1.646291E-2	-1.013378E+1	2.477858E-2	2.455003E-2	7.459952E-2	3.164702E-2
10/19/2017  17:42:43.367041	-1.168722E+0	1.828100E-2	6.282096E-3	-1.014396E+1	1.202884E-2	1.691808E-2	7.459952E-2	1.892744E-2
10/19/2017  17:42:43.368041	2.039566E-1	1.319332E-2	2.155331E-2	-1.014651E+1	1.967868E-2	1.691808E-2	7.205661E-2	3.164702E-2
10/19/2017  17:42:43.369041	5.005790E+0	5.561801E-3	1.646291E-2	-1.012105E+1	2.477858E-2	2.455003E-2	7.459952E-2	3.164702E-2
10/19/2017  17:42:43.370041	3.221308E+0	2.591253E-2	6.282096E-3	-1.012614E+1	2.477858E-2	1.946206E-2	7.205661E-2	3.164702E-2
10/19/2017  17:42:43.371041	5.445843E-1	1.064948E-2	1.646291E-2	-1.013123E+1	1.967868E-2	1.437409E-2	7.205661E-2	2.655919E-2
10/19/2017  17:42:43.372041	-2.243987E+0	3.017961E-3	2.409852E-2	-1.015160E+1	1.202884E-2	1.946206E-2	7.205661E-2	2.910311E-2
10/19/2017  17:42:43.373041	-4.938505E+0	8.105642E-3	1.391770E-2	-1.014396E+1	2.222863E-2	1.437409E-2	6.951371E-2	3.164702E-2
10/19/2017  17:42:43.374041	-3.664964E+0	2.082484E-2	1.137250E-2	-1.014651E+1	3.752832E-2	2.709402E-2	6.697081E-2	2.655919E-2
10/19/2017  17:42:43.375041	7.657381E-1	1.573716E-2	2.155331E-2	-1.014651E+1	1.712873E-2	1.946206E-2	7.968532E-2	2.910311E-2
10/19/2017  17:42:43.376041	8.775860E-1	5.561801E-3	1.391770E-2	-1.012869E+1	1.967868E-2	1.691808E-2	6.442791E-2	2.401527E-2
								
10/19/2017  17:42:43.377041	-4.770118E-2	1.319332E-2	3.736893E-3	-1.013632E+1	2.987847E-2	1.691808E-2	7.205661E-2	3.164702E-2
10/19/2017  17:42:43.378041	-1.364456E+0	1.064948E-2	1.900811E-2	-1.013887E+1	1.967868E-2	1.946206E-2	7.714242E-2	3.673486E-2
10/19/2017  17:42:43.379041	1.759659E+0	1.064948E-2	1.900811E-2	-1.012614E+1	2.222863E-2	2.709402E-2	7.205661E-2	3.673486E-2
10/19/2017  17:42:43.380041	4.873606E+0	8.105642E-3	1.137250E-2	-1.013632E+1	2.222863E-2	2.455003E-2	7.205661E-2	2.147136E-2
10/19/2017  17:42:43.381041	2.893390E+0	2.082484E-2	1.391770E-2	-1.013378E+1	2.477858E-2	1.946206E-2	7.968532E-2	2.147136E-2
10/19/2017  17:42:43.382041	-5.230547E-1	1.319332E-2	2.918892E-2	-1.013887E+1	1.712873E-2	2.455003E-2	7.968532E-2	2.910311E-2
10/19/2017  17:42:43.383041	-1.722878E+0	1.064948E-2	1.391770E-2	-1.014651E+1	2.222863E-2	2.963800E-2	8.731403E-2	3.419094E-2
10/19/2017  17:42:43.384041	-3.250618E+0	1.828100E-2	1.137250E-2	-1.014651E+1	1.712873E-2	2.200605E-2	7.205661E-2	2.147136E-2
10/19/2017  17:42:43.385041	1.266512E+0	1.064948E-2	2.409852E-2	-1.014651E+1	1.457878E-2	2.455003E-2	7.459952E-2	3.419094E-2
10/19/2017  17:42:43.386041	3.279774E+0	8.105642E-3	8.827299E-3	-1.013123E+1	2.222863E-2	1.437409E-2	7.459952E-2	3.673486E-2
10/19/2017  17:42:43.387041	2.377365E+0	1.828100E-2	1.137250E-2	-1.013378E+1	2.987847E-2	2.709402E-2	7.205661E-2	2.147136E-2
10/19/2017  17:42:43.388041	-3.062510E+0	1.828100E-2	1.391770E-2	-1.014905E+1	1.967868E-2	2.455003E-2	8.222822E-2	2.655919E-2
10/19/2017  17:42:43.389041	-4.930879E+0	5.561801E-3	2.409852E-2	-1.015160E+1	6.928941E-3	1.946206E-2	7.459952E-2	3.927877E-2
10/19/2017  17:42:43.390041	-3.426016E+0	1.573716E-2	8.827299E-3	-1.014651E+1	3.242842E-2	1.946206E-2	6.697081E-2	2.147136E-2
10/19/2017  17:42:43.391041	-2.843899E+0	3.100021E-2	1.900811E-2	-1.015160E+1	2.987847E-2	2.709402E-2	7.459952E-2	3.164702E-2
10/19/2017  17:42:43.392041	-2.058421E+0	1.319332E-2	1.646291E-2	-1.013887E+1	2.222863E-2	2.455003E-2	8.222822E-2	4.182269E-2
10/19/2017  17:42:43.393041	2.347476E-2	5.561801E-3	1.137250E-2	-1.012105E+1	1.712873E-2	1.437409E-2	6.697081E-2	2.655919E-2
10/19/2017  17:42:43.394041	1.698651E+0	1.573716E-2	1.646291E-2	-1.014905E+1	1.967868E-2	2.709402E-2	7.459952E-2	2.401527E-2
10/19/2017  17:42:43.395041	1.215672E+0	1.573716E-2	2.155331E-2	-1.013123E+1	1.967868E-2	2.455003E-2	7.968532E-2	3.927877E-2
10/19/2017  17:42:43.396041	1.530879E+0	5.561801E-3	1.391770E-2	-1.011850E+1	2.732853E-2	1.691808E-2	7.459952E-2	3.164702E-2
10/19/2017  17:42:43.397041	2.387533E+0	1.064948E-2	8.827299E-3	-1.013632E+1	3.242842E-2	2.709402E-2	7.459952E-2	1.892744E-2
10/19/2017  17:42:43.398041	9.792659E-1	1.064948E-2	1.900811E-2	-1.014142E+1	1.457878E-2	1.691808E-2	8.222822E-2	3.164702E-2
10/19/2017  17:42:43.399041	-6.755746E-1	5.561801E-3	2.155331E-2	-1.013123E+1	2.222863E-2	1.691808E-2	7.459952E-2	4.436661E-2
10/19/2017  17:42:43.400041	4.429044E-1	1.319332E-2	1.646291E-2	-1.012869E+1	2.732853E-2	2.709402E-2	7.205661E-2	3.164702E-2
10/19/2017  17:42:43.401041	1.708819E+0	2.336868E-2	1.900811E-2	-1.013887E+1	2.222863E-2	2.709402E-2	7.459952E-2	3.164702E-2
10/19/2017  17:42:43.402041	1.355482E+0	1.319332E-2	1.900811E-2	-1.013632E+1	1.457878E-2	1.654165E-3	8.222822E-2	3.927877E-2
10/19/2017  17:42:43.403041	-3.753318E-2	4.741205E-4	1.137250E-2	-1.013123E+1	2.477858E-2	9.286120E-3	6.697081E-2	3.419094E-2
10/19/2017  17:42:43.404041	-2.475309E+0	2.336868E-2	1.646291E-2	-1.014651E+1	2.477858E-2	1.946206E-2	8.222822E-2	2.910311E-2
10/19/2017  17:42:43.405041	-4.946131E+0	1.064948E-2	1.900811E-2	-1.014905E+1	1.712873E-2	1.946206E-2	7.968532E-2	3.673486E-2
10/19/2017  17:42:43.406041	-3.855614E+0	4.741205E-4	1.646291E-2	-1.013632E+1	1.712873E-2	1.437409E-2	7.205661E-2	3.927877E-2
10/19/2017  17:42:43.407041	-1.217020E+0	1.064948E-2	-1.353514E-3	-1.013887E+1	1.967868E-2	1.183011E-2	7.205661E-2	2.655919E-2
10/19/2017  17:42:43.408041	3.895224E-1	2.082484E-2	1.391770E-2	-1.013632E+1	2.222863E-2	2.709402E-2	7.459952E-2	3.164702E-2
10/19/2017  17:42:43.409041	1.591887E+0	1.319332E-2	2.664372E-2	-1.012869E+1	1.712873E-2	3.218199E-2	8.222822E-2	4.182269E-2
								
10/19/2017  17:42:43.410041	8.089520E-1	2.336868E-2	1.900811E-2	-1.012614E+1	2.987847E-2	1.437409E-2	6.442791E-2	3.419094E-2
10/19/2017  17:42:43.411041	4.886603E-1	1.828100E-2	8.827299E-3	-1.014651E+1	2.732853E-2	1.183011E-2	6.697081E-2	1.638352E-2
10/19/2017  17:42:43.412041	-6.196507E-1	8.105642E-3	2.409852E-2	-1.015415E+1	1.712873E-2	1.946206E-2	8.477112E-2	3.164702E-2
10/19/2017  17:42:43.413041	-4.259791E+0	8.105642E-3	1.646291E-2	-1.013887E+1	1.967868E-2	1.691808E-2	7.459952E-2	3.419094E-2
10/19/2017  17:42:43.414041	-2.360919E+0	1.573716E-2	1.646291E-2	-1.014396E+1	1.202884E-2	2.200605E-2	7.459952E-2	1.892744E-2
10/19/2017  17:42:43.415041	2.184173E+0	1.828100E-2	1.646291E-2	-1.013887E+1	1.457878E-2	2.709402E-2	7.968532E-2	3.164702E-2
10/19/2017  17:42:43.416041	4.998164E+0	3.017961E-3	1.900811E-2	-1.012614E+1	6.928941E-3	1.183011E-2	6.442791E-2	3.164702E-2
10/19/2017  17:42:43.417041	5.008332E+0	1.573716E-2	6.282096E-3	-1.012614E+1	2.732853E-2	3.218199E-2	7.459952E-2	2.655919E-2
10/19/2017  17:42:43.418041	3.798341E+0	2.336868E-2	2.155331E-2	-1.013632E+1	2.222863E-2	2.963800E-2	8.222822E-2	3.419094E-2
10/19/2017  17:42:43.419041	-2.114345E+0	5.561801E-3	2.918892E-2	-1.013632E+1	1.457878E-2	1.437409E-2	8.477112E-2	3.927877E-2
10/19/2017  17:42:43.420041	-4.221661E+0	1.064948E-2	1.137250E-2	-1.015160E+1	2.477858E-2	1.946206E-2	6.951371E-2	2.401527E-2
10/19/2017  17:42:43.421041	-2.592241E+0	2.336868E-2	1.646291E-2	-1.015415E+1	2.222863E-2	1.946206E-2	7.968532E-2	3.164702E-2
10/19/2017  17:42:43.422041	7.177272E-2	1.319332E-2	1.137250E-2	-1.014651E+1	2.222863E-2	2.200605E-2	8.222822E-2	3.673486E-2
10/19/2017  17:42:43.423041	2.232471E+0	1.064948E-2	1.900811E-2	-1.014142E+1	1.712873E-2	1.946206E-2	7.968532E-2	3.164702E-2
10/19/2017  17:42:43.424041	3.025574E+0	1.828100E-2	1.391770E-2	-1.013887E+1	2.987847E-2	2.963800E-2	6.697081E-2	2.147136E-2
10/19/2017  17:42:43.425041	4.200264E-1	1.573716E-2	2.155331E-2	-1.014651E+1	1.457878E-2	2.709402E-2	8.222822E-2	2.655919E-2
10/19/2017  17:42:43.426041	1.988726E-1	8.105642E-3	1.391770E-2	-1.013123E+1	6.928941E-3	1.946206E-2	8.222822E-2	3.927877E-2
10/19/2017  17:42:43.427041	-9.729883E-1	1.319332E-2	1.137250E-2	-1.012869E+1	2.477858E-2	1.691808E-2	6.697081E-2	2.910311E-2
10/19/2017  17:42:43.428041	-1.824271E-1	1.573716E-2	1.391770E-2	-1.014651E+1	2.732853E-2	1.946206E-2	7.205661E-2	2.147136E-2
10/19/2017  17:42:43.429041	4.835763E-1	1.319332E-2	2.664372E-2	-1.014142E+1	1.967868E-2	2.200605E-2	7.968532E-2	2.910311E-2
10/19/2017  17:42:43.430041	8.702470E-2	8.105642E-3	1.900811E-2	-1.013123E+1	2.222863E-2	2.709402E-2	7.205661E-2	3.419094E-2
10/19/2017  17:42:43.431041	-1.036538E+0	2.845637E-2	8.827299E-3	-1.013632E+1	3.242842E-2	1.946206E-2	6.951371E-2	2.401527E-2
10/19/2017  17:42:43.432041	-1.097546E+0	2.082484E-2	1.900811E-2	-1.014905E+1	2.222863E-2	2.963800E-2	8.222822E-2	3.673486E-2
10/19/2017  17:42:43.433041	-5.332227E-1	-1.224508E-2	2.155331E-2	-1.015160E+1	9.478889E-3	1.437409E-2	7.968532E-2	3.673486E-2
10/19/2017  17:42:43.434041	7.225241E-1	1.064948E-2	1.137250E-2	-1.013887E+1	2.732853E-2	1.946206E-2	6.951371E-2	3.164702E-2
10/19/2017  17:42:43.435041	2.631564E+0	1.828100E-2	2.155331E-2	-1.013887E+1	2.987847E-2	2.709402E-2	7.968532E-2	3.164702E-2
10/19/2017  17:42:43.436041	1.879133E+0	1.064948E-2	2.918892E-2	-1.013123E+1	1.457878E-2	1.183011E-2	8.222822E-2	3.673486E-2
10/19/2017  17:42:43.437041	-2.045711E+0	1.064948E-2	1.646291E-2	-1.013123E+1	2.477858E-2	1.691808E-2	7.968532E-2	2.910311E-2
10/19/2017  17:42:43.438041	3.590185E-1	1.828100E-2	1.137250E-2	-1.014142E+1	2.732853E-2	2.455003E-2	7.205661E-2	2.910311E-2
10/19/2017  17:42:43.439041	-8.662244E-1	1.828100E-2	2.155331E-2	-1.014905E+1	1.457878E-2	2.963800E-2	7.968532E-2	4.182269E-2
10/19/2017  17:42:43.440041	-1.346662E+0	5.561801E-3	2.409852E-2	-1.012105E+1	1.712873E-2	1.946206E-2	7.205661E-2	3.164702E-2
10/19/2017  17:42:43.441041	1.108908E+0	1.319332E-2	6.282096E-3	-1.013632E+1	2.477858E-2	1.691808E-2	6.951371E-2	3.164702E-2
10/19/2017  17:42:43.442041	-3.705349E-1	1.828100E-2	1.646291E-2	-1.015924E+1	2.222863E-2	2.200605E-2	6.188501E-2	3.164702E-2
								
10/19/2017  17:42:43.443041	-9.907823E-1	8.105642E-3	1.900811E-2	-1.013123E+1	2.222863E-2	1.946206E-2	7.459952E-2	2.655919E-2
10/19/2017  17:42:43.444041	3.615605E-1	1.319332E-2	1.646291E-2	-1.013632E+1	2.477858E-2	2.455003E-2	7.205661E-2	2.910311E-2
10/19/2017  17:42:43.445041	1.561383E+0	2.082484E-2	1.391770E-2	-1.014142E+1	1.712873E-2	2.455003E-2	7.205661E-2	2.910311E-2
10/19/2017  17:42:43.446041	7.682801E-1	1.319332E-2	2.155331E-2	-1.013632E+1	1.457878E-2	2.200605E-2	7.205661E-2	3.673486E-2
10/19/2017  17:42:43.447041	7.835321E-1	3.017961E-3	2.155331E-2	-1.012869E+1	2.987847E-2	1.946206E-2	7.459952E-2	3.419094E-2
10/19/2017  17:42:43.448041	2.870512E+0	1.573716E-2	1.137250E-2	-1.013632E+1	2.987847E-2	2.455003E-2	6.951371E-2	2.401527E-2
10/19/2017  17:42:43.449041	2.949314E+0	1.064948E-2	2.664372E-2	-1.013887E+1	1.967868E-2	1.691808E-2	8.222822E-2	3.419094E-2
10/19/2017  17:42:43.450041	-2.457515E+0	4.741205E-4	1.646291E-2	-1.014651E+1	1.457878E-2	1.946206E-2	7.459952E-2	3.164702E-2
10/19/2017  17:42:43.451041	-2.327873E+0	1.828100E-2	1.137250E-2	-1.014651E+1	2.477858E-2	2.455003E-2	7.714242E-2	2.147136E-2
10/19/2017  17:42:43.452041	-1.758466E+0	1.573716E-2	2.155331E-2	-1.014396E+1	2.477858E-2	2.200605E-2	8.222822E-2	3.164702E-2
10/19/2017  17:42:43.453041	-1.008576E+0	1.064948E-2	2.155331E-2	-1.014396E+1	1.967868E-2	2.200605E-2	7.459952E-2	3.673486E-2
10/19/2017  17:42:43.454041	-5.179708E-1	8.105642E-3	1.900811E-2	-1.013632E+1	1.202884E-2	2.455003E-2	7.205661E-2	2.147136E-2
10/19/2017  17:42:43.455041	-4.188328E-1	5.561801E-3	2.664372E-2	-1.012614E+1	1.457878E-2	1.437409E-2	7.459952E-2	3.673486E-2
10/19/2017  17:42:43.456041	-2.739390E-1	1.319332E-2	1.391770E-2	-1.013123E+1	3.497837E-2	2.200605E-2	7.968532E-2	3.927877E-2
10/19/2017  17:42:43.457041	-9.854113E-2	1.319332E-2	3.173413E-2	-1.012869E+1	1.457878E-2	2.455003E-2	8.222822E-2	2.655919E-2
10/19/2017  17:42:43.458041	-5.278517E-2	8.105642E-3	1.391770E-2	-1.013632E+1	1.967868E-2	1.946206E-2	7.714242E-2	2.147136E-2
10/19/2017  17:42:43.459041	-6.450706E-1	1.064948E-2	6.282096E-3	-1.014142E+1	2.222863E-2	2.200605E-2	7.205661E-2	2.401527E-2
10/19/2017  17:42:43.460041	-7.721705E-1	8.105642E-3	2.409852E-2	-1.014142E+1	1.712873E-2	1.437409E-2	7.968532E-2	5.199836E-2
10/19/2017  17:42:43.461041	-1.067042E+0	8.105642E-3	1.646291E-2	-1.013887E+1	2.222863E-2	1.946206E-2	7.205661E-2	3.673486E-2
10/19/2017  17:42:43.462041	-2.129310E-1	1.828100E-2	1.137250E-2	-1.014651E+1	1.712873E-2	2.200605E-2	7.205661E-2	2.655919E-2
10/19/2017  17:42:43.463041	2.522546E-1	1.064948E-2	2.155331E-2	-1.014905E+1	2.222863E-2	2.455003E-2	7.968532E-2	2.910311E-2
10/19/2017  17:42:43.464041	-3.374889E-1	8.105642E-3	1.391770E-2	-1.013887E+1	1.712873E-2	2.455003E-2	7.459952E-2	2.910311E-2
10/19/2017  17:42:43.465041	-1.722591E-1	1.828100E-2	1.391770E-2	-1.013887E+1	2.222863E-2	3.218199E-2	8.731403E-2	2.401527E-2
10/19/2017  17:42:43.466041	3.358576E+0	8.105642E-3	3.936974E-2	-1.013378E+1	2.477858E-2	9.286120E-3	7.714242E-2	3.419094E-2
10/19/2017  17:42:43.467041	5.008332E+0	1.064948E-2	1.900811E-2	-1.013632E+1	1.967868E-2	1.946206E-2	7.205661E-2	3.164702E-2
10/19/2017  17:42:43.468041	4.982912E+0	1.828100E-2	1.137250E-2	-1.013123E+1	6.928941E-3	1.946206E-2	7.714242E-2	2.401527E-2
10/19/2017  17:42:43.469041	-8.357205E-1	1.064948E-2	2.409852E-2	-1.014142E+1	1.457878E-2	2.200605E-2	8.222822E-2	3.927877E-2
10/19/2017  17:42:43.470041	-4.272501E+0	1.064948E-2	1.137250E-2	-1.013887E+1	3.497837E-2	2.963800E-2	6.951371E-2	3.927877E-2
10/19/2017  17:42:43.471041	-4.862245E+0	1.064948E-2	1.900811E-2	-1.015669E+1	1.712873E-2	2.709402E-2	7.205661E-2	3.164702E-2
10/19/2017  17:42:43.472041	-3.265870E+0	1.319332E-2	2.155331E-2	-1.014651E+1	1.712873E-2	4.198150E-3	7.205661E-2	2.401527E-2
10/19/2017  17:42:43.473041	-1.257692E+0	-7.157401E-3	1.137250E-2	-1.014142E+1	3.497837E-2	2.455003E-2	6.951371E-2	3.673486E-2
10/19/2017  17:42:43.474041	-8.153845E-1	1.828100E-2	2.155331E-2	-1.014142E+1	2.222863E-2	2.200605E-2	7.205661E-2	3.673486E-2
10/19/2017  17:42:43.475041	-7.747125E-1	1.319332E-2	1.646291E-2	-1.012869E+1	3.242842E-2	1.691808E-2	8.731403E-2	2.910311E-2
								
10/19/2017  17:42:43.476041	-1.442971E-1	1.064948E-2	6.282096E-3	-1.014396E+1	2.987847E-2	1.946206E-2	6.697081E-2	3.164702E-2
10/19/2017  17:42:43.477041	-5.967727E-1	1.828100E-2	1.646291E-2	-1.014142E+1	1.202884E-2	1.946206E-2	6.951371E-2	3.673486E-2
10/19/2017  17:42:43.478041	-6.069407E-1	1.319332E-2	2.409852E-2	-1.014142E+1	1.967868E-2	1.946206E-2	7.205661E-2	3.673486E-2
10/19/2017  17:42:43.479041	-1.171264E+0	1.064948E-2	6.282096E-3	-1.013887E+1	2.477858E-2	2.200605E-2	7.205661E-2	2.401527E-2
10/19/2017  17:42:43.480041	1.797789E+0	1.573716E-2	1.900811E-2	-1.015669E+1	1.712873E-2	2.709402E-2	8.222822E-2	2.147136E-2
10/19/2017  17:42:43.481041	4.993080E+0	3.017961E-3	2.155331E-2	-1.012614E+1	1.457878E-2	1.691808E-2	8.222822E-2	4.182269E-2
10/19/2017  17:42:43.482041	3.457714E+0	1.064948E-2	1.391770E-2	-1.011850E+1	2.987847E-2	1.691808E-2	7.714242E-2	2.910311E-2
10/19/2017  17:42:43.483041	9.436779E-1	2.082484E-2	2.664372E-2	-1.013378E+1	2.732853E-2	1.946206E-2	7.714242E-2	3.164702E-2
10/19/2017  17:42:43.484041	-2.332670E-1	5.561801E-3	1.646291E-2	-1.013378E+1	2.222863E-2	2.200605E-2	7.205661E-2	3.164702E-2
10/19/2017  17:42:43.485041	8.572500E-1	8.105642E-3	3.736893E-3	-1.014396E+1	2.477858E-2	2.963800E-2	6.951371E-2	2.147136E-2
10/19/2017  17:42:43.486041	4.144053E+0	1.319332E-2	2.155331E-2	-1.014905E+1	1.712873E-2	2.709402E-2	7.714242E-2	2.910311E-2
10/19/2017  17:42:43.487041	1.032648E+0	8.105642E-3	3.173413E-2	-1.012869E+1	2.477858E-2	2.200605E-2	7.205661E-2	4.182269E-2
10/19/2017  17:42:43.488041	-2.353293E+0	1.064948E-2	1.646291E-2	-1.014396E+1	2.222863E-2	1.946206E-2	6.951371E-2	2.401527E-2
10/19/2017  17:42:43.489041	-1.971993E+0	1.573716E-2	1.137250E-2	-1.014142E+1	1.202884E-2	9.286120E-3	8.222822E-2	2.910311E-2
10/19/2017  17:42:43.490041	-9.345713E-2	-4.613560E-3	1.137250E-2	-1.013887E+1	1.967868E-2	1.691808E-2	6.951371E-2	3.927877E-2
10/19/2017  17:42:43.491041	8.750440E-1	2.082484E-2	2.155331E-2	-1.014142E+1	2.222863E-2	4.490191E-2	7.459952E-2	3.164702E-2
10/19/2017  17:42:43.492041	1.647811E+0	3.100021E-2	2.664372E-2	-1.013887E+1	2.222863E-2	1.691808E-2	8.222822E-2	3.164702E-2
10/19/2017  17:42:43.493041	2.827298E+0	8.105642E-3	1.137250E-2	-1.012869E+1	2.732853E-2	1.946206E-2	6.951371E-2	2.401527E-2
10/19/2017  17:42:43.494041	-2.119429E+0	8.105642E-3	1.391770E-2	-1.015924E+1	9.478889E-3	2.709402E-2	7.205661E-2	2.147136E-2
10/19/2017  17:42:43.495041	-4.948673E+0	5.561801E-3	2.155331E-2	-1.014142E+1	1.457878E-2	1.437409E-2	7.968532E-2	3.673486E-2
10/19/2017  17:42:43.496041	-4.615671E+0	8.105642E-3	1.137250E-2	-1.014396E+1	2.987847E-2	1.946206E-2	7.205661E-2	2.910311E-2
10/19/2017  17:42:43.497041	-2.030459E+0	2.082484E-2	1.646291E-2	-1.015924E+1	1.967868E-2	2.455003E-2	7.714242E-2	3.164702E-2
10/19/2017  17:42:43.498041	-9.091514E-2	1.064948E-2	2.664372E-2	-1.014142E+1	2.732853E-2	1.691808E-2	7.968532E-2	2.147136E-2
10/19/2017  17:42:43.499041	6.869362E-1	1.064948E-2	8.827299E-3	-1.014396E+1	2.477858E-2	1.183011E-2	6.951371E-2	2.910311E-2
10/19/2017  17:42:43.500041	5.005790E+0	2.336868E-2	1.900811E-2	-1.013887E+1	2.732853E-2	2.709402E-2	7.459952E-2	3.927877E-2
10/19/2017  17:42:43.501041	4.985454E+0	1.064948E-2	3.427933E-2	-1.011086E+1	1.457878E-2	9.286120E-3	8.222822E-2	3.673486E-2
10/19/2017  17:42:43.502041	-1.143302E+0	8.105642E-3	8.827299E-3	-1.012869E+1	2.732853E-2	1.183011E-2	6.951371E-2	1.892744E-2
10/19/2017  17:42:43.503041	-2.993877E+0	1.828100E-2	1.646291E-2	-1.016687E+1	2.477858E-2	2.455003E-2	6.951371E-2	2.401527E-2
10/19/2017  17:42:43.504041	-2.793059E+0	1.064948E-2	1.646291E-2	-1.013887E+1	2.477858E-2	2.455003E-2	7.968532E-2	3.927877E-2
10/19/2017  17:42:43.505041	-5.815207E-1	8.105642E-3	1.391770E-2	-1.012869E+1	2.477858E-2	1.691808E-2	6.188501E-2	2.910311E-2
10/19/2017  17:42:43.506041	1.002144E+0	1.319332E-2	6.282096E-3	-1.014142E+1	1.712873E-2	2.709402E-2	7.459952E-2	2.401527E-2
10/19/2017  17:42:43.507041	7.225241E-1	1.319332E-2	2.409852E-2	-1.014142E+1	1.967868E-2	2.200605E-2	7.459952E-2	3.164702E-2
10/19/2017  17:42:43.508041	6.160473E-2	1.319332E-2	2.155331E-2	-1.013632E+1	1.712873E-2	2.455003E-2	7.205661E-2	3.673486E-2
								
10/19/2017  17:42:43.509041	2.497126E-1	1.319332E-2	8.827299E-3	-1.013632E+1	2.987847E-2	2.709402E-2	6.697081E-2	2.401527E-2
10/19/2017  17:42:43.510041	4.581564E-1	1.573716E-2	2.155331E-2	-1.014905E+1	4.378993E-3	3.981394E-2	7.968532E-2	2.655919E-2
10/19/2017  17:42:43.511041	-5.255967E-1	-2.069720E-3	2.155331E-2	-1.014142E+1	1.202884E-2	1.437409E-2	7.968532E-2	3.673486E-2
10/19/2017  17:42:43.512041	-1.064500E+0	1.064948E-2	1.137250E-2	-1.014142E+1	2.477858E-2	3.472597E-2	6.442791E-2	3.164702E-2
10/19/2017  17:42:43.513041	5.522103E-1	2.591253E-2	1.137250E-2	-1.014142E+1	1.967868E-2	2.963800E-2	7.459952E-2	2.401527E-2
10/19/2017  17:42:43.514041	3.142506E+0	1.064948E-2	2.155331E-2	-1.014142E+1	1.457878E-2	1.946206E-2	7.968532E-2	3.164702E-2
10/19/2017  17:42:43.515041	5.005790E+0	-7.157401E-3	1.900811E-2	-1.012105E+1	3.242842E-2	1.183011E-2	6.697081E-2	3.164702E-2
10/19/2017  17:42:43.516041	4.695667E+0	2.082484E-2	6.282096E-3	-1.012869E+1	2.732853E-2	2.709402E-2	6.951371E-2	2.655919E-2
10/19/2017  17:42:43.517041	-3.314168E+0	1.828100E-2	2.155331E-2	-1.014142E+1	3.242842E-2	2.200605E-2	8.477112E-2	3.927877E-2
10/19/2017  17:42:43.518041	-3.095556E+0	5.561801E-3	2.664372E-2	-1.013887E+1	1.967868E-2	1.691808E-2	7.459952E-2	3.673486E-2
10/19/2017  17:42:43.519041	-3.253160E+0	1.064948E-2	1.900811E-2	-1.014905E+1	1.712873E-2	1.691808E-2	6.442791E-2	3.927877E-2
10/19/2017  17:42:43.520041	-3.507360E+0	1.573716E-2	1.646291E-2	-1.015669E+1	1.967868E-2	1.946206E-2	8.477112E-2	2.910311E-2
10/19/2017  17:42:43.521041	-3.517528E+0	1.064948E-2	2.155331E-2	-1.014142E+1	1.967868E-2	1.691808E-2	7.714242E-2	4.945444E-2
10/19/2017  17:42:43.522041	-1.077210E+0	1.573716E-2	1.646291E-2	-1.012105E+1	2.477858E-2	2.709402E-2	6.951371E-2	2.147136E-2
10/19/2017  17:42:43.523041	2.649645E-1	2.082484E-2	2.155331E-2	-1.014651E+1	2.477858E-2	1.946206E-2	7.459952E-2	2.147136E-2
10/19/2017  17:42:43.524041	-2.027630E-1	5.561801E-3	1.900811E-2	-1.015160E+1	2.222863E-2	4.198150E-3	6.951371E-2	3.927877E-2
10/19/2017  17:42:43.525041	2.557846E+0	5.561801E-3	1.646291E-2	-1.013887E+1	2.477858E-2	2.455003E-2	6.951371E-2	3.164702E-2
10/19/2017  17:42:43.526041	3.073872E+0	2.336868E-2	1.900811E-2	-1.013632E+1	1.967868E-2	2.455003E-2	8.477112E-2	2.910311E-2
10/19/2017  17:42:43.527041	5.003248E+0	2.591253E-2	3.682453E-2	-1.012869E+1	2.477858E-2	1.183011E-2	7.968532E-2	3.419094E-2
10/19/2017  17:42:43.528041	4.423673E+0	8.105642E-3	1.137250E-2	-1.013632E+1	2.477858E-2	1.946206E-2	6.188501E-2	2.910311E-2
10/19/2017  17:42:43.529041	9.665559E-1	2.082484E-2	1.900811E-2	-1.013887E+1	1.457878E-2	2.963800E-2	7.459952E-2	2.147136E-2
10/19/2017  17:42:43.530041	-3.944584E+0	1.828100E-2	2.155331E-2	-1.014142E+1	1.967868E-2	2.200605E-2	7.205661E-2	3.164702E-2
10/19/2017  17:42:43.531041	-4.679221E+0	1.064948E-2	1.900811E-2	-1.015415E+1	2.222863E-2	9.286120E-3	7.205661E-2	3.419094E-2
10/19/2017  17:42:43.532041	-6.730326E-1	1.319332E-2	1.137250E-2	-1.014142E+1	1.967868E-2	2.455003E-2	7.459952E-2	2.401527E-2
10/19/2017  17:42:43.533041	-1.257692E+0	1.064948E-2	2.155331E-2	-1.013632E+1	1.457878E-2	4.198150E-3	8.222822E-2	4.182269E-2
10/19/2017  17:42:43.534041	7.225241E-1	4.741205E-4	1.137250E-2	-1.013887E+1	3.752832E-2	1.946206E-2	7.459952E-2	3.673486E-2
10/19/2017  17:42:43.535041	1.607426E-1	1.828100E-2	1.137250E-2	-1.014905E+1	2.732853E-2	2.709402E-2	6.951371E-2	2.910311E-2
10/19/2017  17:42:43.536041	-7.365826E-1	1.828100E-2	2.409852E-2	-1.013123E+1	1.457878E-2	2.200605E-2	7.714242E-2	3.164702E-2
10/19/2017  17:42:43.537041	-1.100088E+0	8.105642E-3	1.391770E-2	-1.013632E+1	1.967868E-2	9.286120E-3	7.714242E-2	3.164702E-2
10/19/2017  17:42:43.538041	-1.280570E+0	1.319332E-2	1.391770E-2	-1.014142E+1	3.242842E-2	2.200605E-2	7.459952E-2	3.419094E-2
10/19/2017  17:42:43.539041	4.251104E-1	1.064948E-2	3.173413E-2	-1.013632E+1	1.712873E-2	1.946206E-2	7.968532E-2	3.419094E-2
10/19/2017  17:42:43.540041	1.691025E+0	1.064948E-2	1.391770E-2	-1.013378E+1	1.967868E-2	1.183011E-2	7.968532E-2	3.673486E-2
10/19/2017  17:42:43.541041	1.047900E+0	2.082484E-2	1.900811E-2	-1.014905E+1	2.477858E-2	1.946206E-2	6.442791E-2	2.401527E-2
								
10/19/2017  17:42:43.542041	4.098584E-1	1.319332E-2	2.664372E-2	-1.013123E+1	1.457878E-2	2.455003E-2	7.968532E-2	2.401527E-2
10/19/2017  17:42:43.543041	4.556144E-1	1.319332E-2	1.900811E-2	-1.013887E+1	1.967868E-2	1.183011E-2	7.968532E-2	3.164702E-2
10/19/2017  17:42:43.544041	1.378647E-1	2.082484E-2	1.900811E-2	-1.014396E+1	1.967868E-2	2.455003E-2	7.459952E-2	2.147136E-2
10/19/2017  17:42:43.545041	-3.095269E-1	8.105642E-3	2.409852E-2	-1.015415E+1	1.202884E-2	6.742135E-3	7.714242E-2	3.673486E-2
10/19/2017  17:42:43.546041	-1.544651E-1	3.017961E-3	1.646291E-2	-1.013887E+1	2.477858E-2	2.709402E-2	6.697081E-2	3.164702E-2
10/19/2017  17:42:43.547041	7.809901E-1	2.336868E-2	2.155331E-2	-1.013632E+1	2.222863E-2	2.455003E-2	8.731403E-2	2.655919E-2
10/19/2017  17:42:43.548041	9.513039E-1	1.573716E-2	1.900811E-2	-1.012869E+1	2.477858E-2	1.183011E-2	7.205661E-2	3.927877E-2
10/19/2017  17:42:43.549041	-1.097546E+0	8.105642E-3	1.137250E-2	-1.013887E+1	2.222863E-2	2.709402E-2	6.188501E-2	2.401527E-2
10/19/2017  17:42:43.550041	-1.428006E+0	1.828100E-2	1.137250E-2	-1.015160E+1	1.829045E-3	1.946206E-2	7.968532E-2	2.655919E-2
10/19/2017  17:42:43.551041	-8.738504E-1	5.561801E-3	1.900811E-2	-1.014142E+1	1.967868E-2	1.691808E-2	7.459952E-2	3.927877E-2
10/19/2017  17:42:43.552041	1.172458E+0	2.082484E-2	1.646291E-2	-1.013632E+1	2.732853E-2	1.691808E-2	7.205661E-2	2.655919E-2
10/19/2017  17:42:43.553041	7.939871E-2	2.082484E-2	1.391770E-2	-1.013123E+1	2.477858E-2	1.946206E-2	7.205661E-2	2.910311E-2
10/19/2017  17:42:43.554041	-1.733046E+0	8.105642E-3	1.646291E-2	-1.013632E+1	1.712873E-2	-8.898203E-4	7.205661E-2	3.164702E-2
10/19/2017  17:42:43.555041	-1.562732E+0	3.100021E-2	1.391770E-2	-1.015160E+1	2.987847E-2	1.946206E-2	6.697081E-2	3.673486E-2
10/19/2017  17:42:43.556041	-2.378713E+0	1.828100E-2	2.409852E-2	-1.014651E+1	1.967868E-2	2.709402E-2	7.714242E-2	2.655919E-2
10/19/2017  17:42:43.557041	-3.113350E+0	8.105642E-3	2.409852E-2	-1.014142E+1	2.987847E-2	1.946206E-2	8.477112E-2	3.164702E-2
10/19/2017  17:42:43.558041	-2.851525E+0	5.561801E-3	2.409852E-2	-1.013378E+1	2.732853E-2	1.183011E-2	6.951371E-2	3.673486E-2
10/19/2017  17:42:43.559041	8.343720E-1	1.828100E-2	1.137250E-2	-1.013887E+1	2.477858E-2	2.709402E-2	6.951371E-2	2.147136E-2
10/19/2017  17:42:43.560041	4.494849E+0	1.828100E-2	3.173413E-2	-1.014905E+1	1.712873E-2	2.200605E-2	8.222822E-2	2.910311E-2
10/19/2017  17:42:43.561041	5.000706E+0	1.319332E-2	1.900811E-2	-1.012614E+1	1.457878E-2	1.691808E-2	7.968532E-2	4.691052E-2
10/19/2017  17:42:43.562041	3.084040E+0	1.064948E-2	1.137250E-2	-1.013632E+1	2.477858E-2	1.946206E-2	6.188501E-2	3.164702E-2
10/19/2017  17:42:43.563041	-2.114345E+0	1.319332E-2	1.900811E-2	-1.014396E+1	1.967868E-2	2.455003E-2	7.205661E-2	2.147136E-2
10/19/2017  17:42:43.564041	-4.287753E+0	1.064948E-2	2.664372E-2	-1.014396E+1	1.457878E-2	1.183011E-2	8.985693E-2	3.419094E-2
10/19/2017  17:42:43.565041	1.868965E+0	8.105642E-3	8.827299E-3	-1.013632E+1	2.732853E-2	1.437409E-2	7.459952E-2	3.673486E-2
10/19/2017  17:42:43.566041	4.042373E+0	1.828100E-2	1.391770E-2	-1.012869E+1	2.477858E-2	2.200605E-2	7.459952E-2	2.147136E-2
