Parameters: 	Upper Cutoff:  500	Lower Cutoff: 20	Sample Rate (Hz): 1000	Frames Per Second30	Display Window Size (S)100	MVC Window Size (s): 100	Seconds To Acquire MVC: 3	Display Channel: 0
waveform	[0]	[1]	[2]	[3]	[4]	[5]	[6]	[7]
t0	10/19/2017  17:30:56.993656	10/19/2017  17:30:56.993656	10/19/2017  17:30:56.993656	10/19/2017  17:30:56.993656	10/19/2017  17:30:56.993656	10/19/2017  17:30:56.993656	10/19/2017  17:30:56.993656	10/19/2017  17:30:56.993656
delta t	0.001000	0.001000	0.001000	0.001000	0.001000	0.001000	0.001000	0.001000

time	Y[0]	Y[1]	Y[2]	Y[3]	Y[4]	Y[5]	Y[6]	Y[7]
10/19/2017  17:30:56.985089	1.682525E+0	3.764941E-3	1.931179E-4	5.787825E-4	4.338283E-3	8.015450E-3	3.733148E-3	2.322326E-4
10/19/2017  17:30:56.986089	5.592848E-1	1.699515E-3	2.535159E-3	2.041040E-2	9.942744E-4	1.270024E-3	8.051093E-3	9.655136E-5
10/19/2017  17:30:56.987089	6.558174E-1	5.225274E-3	4.505777E-3	5.112655E-3	1.465213E-3	3.658418E-3	3.269191E-3	3.952508E-3
10/19/2017  17:30:56.988089	5.468940E-1	7.316374E-3	3.622952E-3	2.655668E-3	9.806917E-3	4.888962E-3	1.129579E-2	1.993878E-3
10/19/2017  17:30:56.989089	3.248404E-1	5.233445E-3	3.611711E-3	5.226610E-4	2.301198E-3	7.410892E-3	3.605106E-3	1.918918E-3
10/19/2017  17:30:56.990089	7.262398E-1	9.468230E-3	2.136898E-3	2.799929E-3	3.262048E-3	1.377212E-2	8.608988E-3	8.298336E-3
10/19/2017  17:30:56.991089	2.733998E-1	6.280773E-3	1.203354E-2	2.156497E-3	3.645893E-3	8.225024E-3	2.239442E-4	1.742625E-3
10/19/2017  17:30:56.992089	7.487622E-1	2.226104E-3	1.202141E-4	3.748861E-3	2.424380E-3	4.313183E-3	4.228112E-3	3.053781E-3
10/19/2017  17:30:56.993089	3.094626E-1	8.095678E-4	1.976230E-3	6.097137E-3	1.107375E-2	5.646396E-3	1.386864E-3	1.147127E-4
10/19/2017  17:30:56.994089	9.313261E-1	8.177626E-4	5.543163E-3	3.981403E-5	4.807739E-4	2.038804E-3	1.183986E-2	1.913946E-3
10/19/2017  17:30:56.995089	1.267763E+0	7.276770E-3	5.668694E-3	2.292985E-3	1.095340E-4	5.815040E-3	6.252227E-4	7.522534E-3
10/19/2017  17:30:56.996089	7.545620E-2	2.956848E-3	9.672590E-3	5.191049E-4	6.668110E-3	3.946265E-4	9.625385E-3	1.134086E-3
10/19/2017  17:30:56.997089	1.225675E+0	3.143675E-4	3.044075E-3	3.728877E-4	1.740115E-3	1.587491E-3	2.751744E-3	9.482513E-3
10/19/2017  17:30:56.998089	8.005838E-1	7.004427E-3	2.472017E-3	4.582893E-3	3.397740E-3	7.369270E-4	2.314886E-3	4.381963E-3
10/19/2017  17:30:56.999089	7.766805E-2	1.433531E-3	6.683041E-3	5.555818E-3	2.054811E-3	3.698482E-5	3.691143E-3	5.553060E-3
10/19/2017  17:30:57.000089	3.673393E-2	9.594724E-3	4.327099E-3	1.259555E-2	2.766675E-3	7.002314E-3	4.139072E-3	1.827548E-3
10/19/2017  17:30:57.001089	6.633080E-1	2.268697E-3	5.599376E-3	2.414019E-4	6.873875E-3	3.315959E-3	5.291834E-3	9.520253E-4
10/19/2017  17:30:57.002089	6.429488E-1	2.154606E-2	8.419023E-3	5.227221E-3	1.565578E-2	1.919064E-3	3.721528E-3	5.084411E-3
10/19/2017  17:30:57.003089	1.024832E+0	2.056159E-3	2.925929E-3	8.643456E-3	4.761683E-3	7.730307E-4	8.388008E-3	3.513041E-3
10/19/2017  17:30:57.004089	5.361971E-2	7.808943E-3	6.685339E-3	2.103967E-3	2.365451E-2	6.623556E-3	1.628337E-3	2.205550E-3
10/19/2017  17:30:57.005089	8.164651E-1	1.028194E-2	3.846033E-3	7.004988E-3	1.577866E-3	3.059991E-3	9.912734E-4	3.182222E-3
10/19/2017  17:30:57.006089	6.663581E-1	7.281086E-3	1.727835E-3	4.067310E-3	3.600350E-3	9.017730E-3	2.627301E-3	4.783529E-3
10/19/2017  17:30:57.007089	5.402619E-1	4.379927E-4	2.949205E-3	3.234530E-3	7.190220E-3	5.522798E-5	9.287339E-3	1.409881E-3
10/19/2017  17:30:57.008089	7.291367E-1	8.875905E-3	6.148714E-3	1.113260E-2	7.285114E-3	4.443513E-3	6.662620E-3	7.562720E-3
10/19/2017  17:30:57.009089	3.679927E-1	1.089057E-2	9.160995E-3	3.700764E-3	4.998627E-4	3.090503E-3	4.186762E-3	2.873074E-3
10/19/2017  17:30:57.010089	4.937185E-2	1.118888E-3	4.695390E-3	1.835326E-3	4.455184E-3	4.508182E-3	5.362807E-3	1.490175E-3
10/19/2017  17:30:57.011089	1.345179E+0	5.428678E-3	3.032895E-3	1.655860E-2	7.958947E-4	5.334188E-3	6.971826E-3	8.252000E-3
10/19/2017  17:30:57.012089	6.593977E-1	1.045955E-2	1.960318E-3	1.702712E-3	6.312280E-3	7.815713E-4	1.743973E-3	6.283531E-3
10/19/2017  17:30:57.013089	9.320400E-1	7.998633E-3	7.546428E-3	8.343406E-3	3.982287E-3	5.163941E-3	3.650683E-3	2.418278E-3
10/19/2017  17:30:57.014089	9.451247E-1	1.014970E-2	8.267548E-3	8.452815E-3	4.701327E-3	4.867047E-3	5.915724E-3	4.813714E-3
10/19/2017  17:30:57.015089	4.815349E-1	1.736162E-3	8.528513E-3	5.978378E-3	1.018065E-2	1.071193E-3	6.035856E-3	3.341208E-3
10/19/2017  17:30:57.016089	8.164916E-1	5.934506E-3	2.455107E-3	4.756411E-3	9.636862E-3	6.041945E-3	1.146599E-2	4.347329E-3
10/19/2017  17:30:57.017089	8.235082E-1	7.350437E-5	4.871681E-3	3.669049E-3	1.325313E-4	9.602502E-5	2.003784E-3	9.679785E-3
								
10/19/2017  17:30:57.018089	1.555978E+0	2.335995E-3	5.195447E-3	2.744665E-3	8.918749E-3	2.275672E-3	5.733052E-4	8.828670E-5
10/19/2017  17:30:57.019089	4.057081E+0	4.541648E-4	5.726736E-3	4.513259E-3	4.229207E-3	1.564560E-3	4.551126E-3	4.047095E-4
10/19/2017  17:30:57.020089	6.197257E-1	1.875806E-3	1.145324E-2	5.191939E-3	6.522543E-4	1.415593E-2	2.870212E-3	8.026223E-4
10/19/2017  17:30:57.021089	9.799076E-1	1.811905E-2	3.870338E-3	1.080174E-3	2.356523E-3	1.079929E-3	9.297513E-3	5.430973E-3
10/19/2017  17:30:57.022089	7.148982E-1	2.886977E-3	3.694108E-4	8.811362E-4	7.367851E-3	4.100092E-3	9.024674E-3	6.961027E-5
10/19/2017  17:30:57.023089	1.760996E-1	2.658075E-2	4.326381E-5	4.283169E-3	7.554339E-3	1.198640E-2	4.547578E-3	6.144109E-3
10/19/2017  17:30:57.024089	8.884101E-1	7.432906E-4	4.695111E-3	5.694456E-3	5.658219E-3	2.320092E-3	3.348806E-3	2.771999E-3
10/19/2017  17:30:57.025089	1.045930E+0	1.179801E-2	1.378803E-3	1.553271E-6	2.107315E-4	3.908407E-3	4.129756E-3	2.654441E-3
10/19/2017  17:30:57.026089	5.564761E-1	1.973442E-3	3.214678E-3	4.083999E-3	6.576679E-3	5.724827E-4	7.152850E-3	2.504578E-3
10/19/2017  17:30:57.027089	2.428024E+0	5.598051E-3	6.352077E-3	8.967746E-3	1.052656E-5	1.048137E-2	3.304007E-4	2.328744E-3
10/19/2017  17:30:57.028089	1.047536E+0	9.337814E-3	4.682835E-3	1.390804E-2	4.355206E-4	2.817264E-3	3.401617E-4	2.557140E-5
10/19/2017  17:30:57.029089	3.106908E+0	6.724742E-3	8.143382E-3	1.034620E-2	5.707136E-3	5.741731E-3	9.499537E-3	1.126486E-2
10/19/2017  17:30:57.030089	1.685891E+0	4.121059E-3	8.124990E-3	3.497348E-3	1.182950E-2	1.192828E-2	9.227014E-3	1.616883E-3
10/19/2017  17:30:57.031089	1.480204E-1	3.135666E-3	5.230651E-3	3.958300E-3	1.617945E-4	6.908400E-3	1.512434E-2	5.368440E-3
10/19/2017  17:30:57.032089	1.579881E+0	4.178415E-3	1.462472E-2	9.121516E-3	3.893272E-3	1.303925E-3	3.896742E-3	5.166362E-3
10/19/2017  17:30:57.033089	5.064923E-1	6.009509E-4	5.222861E-3	4.914880E-3	2.054682E-3	2.814764E-3	1.305414E-2	2.554546E-3
10/19/2017  17:30:57.034089	2.814664E+0	4.443891E-3	4.201398E-3	6.741137E-3	4.118325E-3	5.897271E-3	1.192740E-3	2.834675E-3
10/19/2017  17:30:57.035089	1.487004E+0	3.827442E-3	5.460027E-3	3.948684E-3	9.769011E-3	1.314817E-3	8.039085E-3	1.094084E-2
10/19/2017  17:30:57.036089	4.599478E-1	3.176328E-3	1.802851E-3	1.562530E-2	4.033754E-4	1.291069E-2	5.685675E-3	9.616461E-3
10/19/2017  17:30:57.037089	1.589149E+0	2.593006E-3	5.241778E-3	9.637764E-3	8.548486E-3	3.182579E-3	7.089088E-3	2.381213E-3
10/19/2017  17:30:57.038089	2.570456E+0	2.073417E-3	3.596890E-3	2.750555E-3	1.629802E-3	8.999550E-3	7.360116E-3	5.131677E-3
10/19/2017  17:30:57.039089	1.733240E+0	3.771979E-3	2.230923E-3	2.335175E-3	9.927933E-3	6.664825E-3	7.438058E-4	3.861361E-3
10/19/2017  17:30:57.040089	4.184676E-1	3.815654E-3	5.363839E-3	5.884583E-4	2.640344E-3	3.865916E-4	4.558076E-3	6.244541E-4
10/19/2017  17:30:57.041089	2.929412E-1	1.684938E-3	6.290363E-3	4.826991E-3	6.001599E-4	4.487754E-3	1.235501E-2	8.205954E-3
10/19/2017  17:30:57.042089	2.964407E-1	9.884421E-3	4.130378E-3	3.324485E-3	1.378560E-3	5.722371E-3	1.912530E-3	1.214291E-3
10/19/2017  17:30:57.043089	1.761029E-1	4.118371E-3	1.508017E-3	6.581709E-3	1.634528E-3	2.297298E-3	3.473984E-3	3.918404E-3
10/19/2017  17:30:57.044089	1.721585E-1	1.405092E-2	3.337106E-3	2.636209E-3	5.495716E-4	7.971235E-3	4.194945E-3	7.473010E-3
10/19/2017  17:30:57.045089	6.013026E-1	1.025646E-3	6.647577E-3	4.001440E-3	4.211431E-3	1.422853E-2	7.367017E-3	1.070466E-3
10/19/2017  17:30:57.046089	5.272962E-1	7.542829E-3	5.129634E-5	2.632325E-3	4.225408E-3	1.498792E-3	1.500660E-3	3.591344E-3
10/19/2017  17:30:57.047089	1.129492E+0	1.105390E-3	4.753012E-3	1.502509E-3	1.515400E-3	1.424345E-2	7.748813E-4	1.853192E-3
10/19/2017  17:30:57.048089	3.816540E-1	1.222353E-2	1.560072E-3	5.893807E-3	1.469410E-2	7.448283E-3	1.796415E-4	7.819708E-4
10/19/2017  17:30:57.049089	1.539248E+0	1.818150E-3	1.382519E-3	6.308191E-3	1.890884E-3	1.013572E-3	4.616744E-3	8.152449E-3
10/19/2017  17:30:57.050089	1.977403E+0	1.227796E-2	5.259387E-3	3.448553E-4	7.430494E-3	1.568272E-3	5.051298E-3	9.124673E-4
								
10/19/2017  17:30:57.051089	1.241941E+0	6.778259E-3	1.036248E-3	1.380037E-2	8.246594E-4	9.821530E-3	3.362825E-3	7.427100E-3
10/19/2017  17:30:57.052089	2.981010E-1	3.319987E-4	5.570110E-3	9.903467E-3	4.673783E-3	6.642593E-3	9.310503E-3	9.971076E-4
10/19/2017  17:30:57.053089	3.496475E-2	6.516904E-3	6.455037E-3	4.200102E-3	1.010256E-2	8.976789E-3	2.394717E-3	7.999569E-3
10/19/2017  17:30:57.054089	2.323493E-1	9.012300E-3	3.991588E-3	5.578120E-3	8.168078E-4	4.772814E-3	1.613144E-3	1.010815E-3
10/19/2017  17:30:57.055089	2.147688E-1	4.084666E-4	1.132400E-2	6.607706E-3	3.754018E-3	1.572818E-3	7.671772E-3	1.155656E-3
10/19/2017  17:30:57.056089	7.519586E-1	7.203160E-3	9.264958E-4	4.232940E-3	4.715036E-3	7.245289E-3	7.536281E-3	4.791981E-3
10/19/2017  17:30:57.057089	1.565446E+0	7.462660E-3	8.829399E-3	4.221494E-3	3.475930E-3	6.737752E-3	5.881506E-3	1.012135E-2
10/19/2017  17:30:57.058089	1.254816E+0	3.502306E-3	9.022114E-3	3.707057E-3	9.228070E-3	6.969236E-3	6.674188E-3	5.317108E-3
10/19/2017  17:30:57.059089	5.962137E-1	4.787278E-3	1.233373E-4	7.545464E-3	4.951114E-5	1.228410E-2	2.629606E-3	2.702673E-3
10/19/2017  17:30:57.060089	2.469753E+0	3.131169E-3	6.662871E-3	5.677746E-3	1.892737E-3	2.639200E-3	1.740043E-3	6.199895E-3
10/19/2017  17:30:57.061089	8.191989E-1	2.110655E-3	2.450364E-4	1.704027E-2	3.328110E-3	2.255307E-3	7.636198E-3	2.372726E-3
10/19/2017  17:30:57.062089	1.464925E+0	3.638378E-3	8.744922E-3	8.008631E-3	4.835840E-4	8.107550E-4	3.211385E-3	1.760710E-4
10/19/2017  17:30:57.063089	9.160439E-1	4.065529E-3	6.757542E-3	1.062042E-2	6.110608E-4	5.152936E-3	6.553441E-3	1.738652E-4
10/19/2017  17:30:57.064089	3.172810E-1	7.936815E-4	6.790337E-3	1.241229E-3	2.871458E-3	3.725323E-3	4.314111E-3	3.880187E-3
10/19/2017  17:30:57.065089	1.674711E+0	3.765253E-3	8.666180E-3	5.564337E-3	4.393682E-3	4.664262E-3	1.413082E-2	4.199579E-3
10/19/2017  17:30:57.066089	2.543010E-1	6.073538E-3	1.512648E-2	6.061008E-4	1.191359E-3	1.390878E-3	3.190875E-3	7.693157E-3
10/19/2017  17:30:57.067089	5.125097E-1	6.394780E-3	4.673477E-3	5.046074E-3	5.152657E-3	5.737508E-3	9.073176E-3	5.540277E-3
10/19/2017  17:30:57.068089	1.262308E-1	6.296064E-3	2.857487E-3	7.096025E-3	1.257979E-3	6.468214E-3	2.108560E-3	6.089223E-4
10/19/2017  17:30:57.069089	4.192188E-2	1.571472E-2	6.990754E-3	3.710444E-4	7.016271E-3	2.351757E-3	1.293116E-3	7.207162E-3
10/19/2017  17:30:57.070089	6.840686E-2	9.303544E-3	8.157447E-4	2.364483E-3	2.196406E-3	2.145749E-3	6.180588E-4	3.017988E-3
10/19/2017  17:30:57.071089	1.918723E+0	8.695484E-3	3.670957E-3	2.099528E-3	1.312274E-2	5.563155E-3	4.245837E-3	2.291160E-3
10/19/2017  17:30:57.072089	1.112558E+0	1.836413E-3	2.514852E-4	1.838173E-3	9.499404E-4	1.522497E-2	3.265012E-3	3.847221E-3
10/19/2017  17:30:57.073089	7.627611E-1	1.615129E-2	2.232883E-3	5.903766E-3	1.361008E-3	2.256314E-3	2.633715E-4	2.615818E-3
10/19/2017  17:30:57.074089	1.186058E+0	4.033409E-3	3.925850E-3	8.560497E-3	2.956269E-3	3.484144E-4	6.220394E-3	1.137353E-2
10/19/2017  17:30:57.075089	1.428984E+0	3.315931E-3	6.384685E-4	1.155327E-2	9.027867E-3	8.605441E-3	2.033991E-4	5.826982E-3
10/19/2017  17:30:57.076089	7.853410E-1	1.638625E-3	6.094199E-3	4.711961E-3	6.424866E-3	4.503761E-4	7.008426E-3	7.091860E-3
10/19/2017  17:30:57.077089	5.225704E-1	7.846583E-4	1.301313E-4	5.391469E-3	1.047293E-4	2.647336E-3	8.148922E-4	7.455585E-3
10/19/2017  17:30:57.078089	3.684441E-1	2.060207E-3	1.866744E-3	3.044001E-3	4.850533E-3	1.957782E-3	1.523643E-3	8.906408E-4
10/19/2017  17:30:57.079089	1.064221E-2	6.206478E-3	7.590025E-3	1.779962E-3	1.024936E-2	2.946763E-3	1.179369E-3	8.221794E-3
10/19/2017  17:30:57.080089	4.697769E-1	4.026624E-3	1.090636E-3	1.352217E-3	1.470059E-3	6.341445E-3	3.073115E-3	2.849941E-3
10/19/2017  17:30:57.081089	1.358535E+0	3.913042E-3	2.818728E-3	3.590778E-3	7.685623E-3	4.478694E-3	1.291787E-2	1.068800E-2
10/19/2017  17:30:57.082089	1.530237E+0	9.462854E-3	6.061458E-3	2.913878E-3	1.184755E-3	9.930932E-3	6.523645E-3	3.618540E-3
10/19/2017  17:30:57.083089	5.371871E-1	5.719700E-5	5.736531E-4	2.316049E-3	7.542300E-3	1.714141E-3	7.336083E-3	1.307491E-3
								
10/19/2017  17:30:57.084089	1.300733E-1	6.755370E-3	3.246188E-3	4.688871E-3	3.126244E-3	7.883958E-3	3.301961E-3	1.036226E-2
10/19/2017  17:30:57.085089	1.896727E+0	2.741633E-3	1.150637E-2	5.622193E-3	6.703185E-3	3.142689E-3	2.414233E-3	3.206826E-3
10/19/2017  17:30:57.086089	2.419955E+0	1.889984E-3	6.543509E-3	4.162647E-3	6.989599E-3	1.094379E-2	6.968089E-3	6.544761E-5
10/19/2017  17:30:57.087089	2.568909E+0	9.606639E-3	2.693654E-3	3.565317E-3	6.128603E-3	3.081873E-3	3.866240E-3	6.525092E-3
10/19/2017  17:30:57.088089	6.033785E-1	1.995881E-3	2.358025E-3	2.492384E-3	1.992323E-3	1.141098E-2	1.438726E-2	1.985360E-3
10/19/2017  17:30:57.089089	1.037652E+0	1.028729E-2	8.044120E-3	1.600309E-3	5.566627E-3	2.231774E-4	7.693701E-3	5.979432E-4
10/19/2017  17:30:57.090089	9.828548E-1	2.837585E-3	3.373570E-3	7.770262E-3	2.968513E-3	4.380508E-3	8.190221E-3	2.596159E-4
10/19/2017  17:30:57.091089	1.677408E+0	4.839857E-3	1.363412E-2	9.607581E-4	3.647925E-4	3.185809E-3	2.593235E-3	1.022905E-5
10/19/2017  17:30:57.092089	3.749617E-2	1.016707E-2	1.201811E-3	5.057077E-3	1.489750E-3	4.303716E-3	4.877071E-3	4.097611E-3
10/19/2017  17:30:57.093089	1.165235E+0	1.583881E-3	7.537977E-3	7.776304E-3	5.938536E-3	1.166204E-2	1.406915E-3	6.108857E-3
10/19/2017  17:30:57.094089	3.623623E+0	5.684448E-3	9.677131E-4	5.770230E-3	1.104582E-2	3.032730E-3	5.308777E-3	6.721870E-3
10/19/2017  17:30:57.095089	2.044032E+0	1.915752E-3	1.653251E-3	1.096892E-2	1.229001E-3	2.431573E-2	7.804181E-4	3.718771E-4
10/19/2017  17:30:57.096089	8.404488E-2	1.167834E-2	3.468560E-3	1.241982E-3	1.025519E-2	4.658025E-3	7.321614E-3	2.082282E-3
10/19/2017  17:30:57.097089	1.677839E+0	3.640643E-3	4.608703E-3	2.789632E-3	1.405320E-3	5.930122E-3	3.389244E-3	5.416932E-4
10/19/2017  17:30:57.098089	2.867105E+0	1.747808E-2	1.287230E-3	1.138955E-2	3.242006E-3	2.289523E-3	1.449201E-4	4.089134E-3
10/19/2017  17:30:57.099089	3.045596E+0	2.627425E-3	5.508283E-3	5.980631E-3	8.714377E-3	1.738025E-3	4.255141E-3	2.931029E-3
10/19/2017  17:30:57.100089	1.882253E+0	4.035490E-3	3.218125E-4	4.678930E-3	6.881546E-3	5.206600E-3	5.146939E-4	1.980297E-4
10/19/2017  17:30:57.101089	8.433017E-1	5.937750E-3	6.651965E-3	3.511453E-3	2.656866E-3	3.475525E-3	6.560491E-3	2.915374E-4
10/19/2017  17:30:57.102089	1.132806E+0	4.416585E-3	7.770593E-5	1.693544E-2	1.133668E-2	6.600690E-3	2.754314E-3	1.805448E-3
10/19/2017  17:30:57.103089	1.799408E+0	5.190695E-3	9.022730E-3	1.550273E-3	2.915982E-3	4.948507E-3	4.415193E-3	3.221045E-3
10/19/2017  17:30:57.104089	1.286340E+0	7.464356E-3	6.548579E-3	8.368697E-3	6.578543E-3	3.538058E-3	7.199857E-3	1.103976E-2
10/19/2017  17:30:57.105089	5.989969E-1	3.173995E-3	4.459538E-3	1.509545E-2	1.898172E-3	4.128196E-3	4.114833E-3	7.791347E-4
10/19/2017  17:30:57.106089	1.933323E-1	2.273687E-3	1.239847E-2	1.954769E-3	2.900691E-3	1.322581E-3	7.808295E-3	1.142748E-2
10/19/2017  17:30:57.107089	1.022289E-1	4.688340E-3	4.092492E-3	1.412399E-2	2.438030E-3	5.179231E-3	6.520466E-4	8.669128E-4
10/19/2017  17:30:57.108089	3.563860E-1	2.991762E-3	2.821176E-3	3.472978E-3	8.340268E-3	5.537524E-3	4.543325E-3	5.394639E-3
10/19/2017  17:30:57.109089	6.243054E-1	5.614321E-4	2.556362E-3	4.271360E-3	5.698735E-3	3.140018E-3	3.675612E-3	1.951917E-3
10/19/2017  17:30:57.110089	1.269037E+0	9.611648E-3	1.534106E-4	4.023481E-3	8.413559E-4	4.980705E-3	8.197231E-4	1.018097E-2
10/19/2017  17:30:57.111089	1.139718E+0	5.983561E-4	6.551118E-3	1.416541E-2	1.246870E-3	1.799086E-3	9.006237E-4	1.652588E-3
10/19/2017  17:30:57.112089	4.814040E-1	8.077439E-3	2.434820E-3	7.899392E-4	3.706331E-3	5.487177E-4	3.088415E-3	5.822184E-3
10/19/2017  17:30:57.113089	3.440651E-1	3.329918E-3	4.984012E-3	5.075436E-3	1.032314E-3	6.443689E-3	2.108154E-4	4.858688E-5
10/19/2017  17:30:57.114089	3.775756E-1	2.781838E-3	5.797010E-3	2.848755E-3	7.386660E-3	2.558510E-3	4.031482E-3	8.572623E-3
10/19/2017  17:30:57.115089	4.967423E-1	2.272511E-3	6.844512E-3	1.056213E-2	1.075111E-2	8.268720E-3	4.231227E-4	5.644289E-3
10/19/2017  17:30:57.116089	4.091021E-1	1.803099E-3	2.674895E-3	4.570874E-4	1.255213E-2	3.144337E-3	8.681108E-3	5.428189E-3
								
10/19/2017  17:30:57.117089	2.753069E+0	5.100876E-3	2.629525E-3	6.918153E-3	2.458750E-3	9.105998E-3	4.044611E-3	8.908354E-3
10/19/2017  17:30:57.118089	4.394394E+0	1.204885E-3	1.297914E-4	1.177947E-3	4.950645E-3	2.210136E-3	1.670181E-3	2.584627E-4
10/19/2017  17:30:57.119089	2.335121E+0	6.966173E-3	6.589709E-5	3.525117E-3	1.429747E-3	6.986896E-4	2.881711E-3	1.636575E-3
10/19/2017  17:30:57.120089	1.370874E-1	6.503939E-3	2.212278E-4	2.937686E-3	1.156651E-3	1.139961E-2	2.650072E-3	9.370026E-3
10/19/2017  17:30:57.121089	1.020923E-1	9.965296E-3	1.819126E-3	6.731999E-3	2.951009E-3	3.027543E-3	6.385772E-3	1.145111E-2
10/19/2017  17:30:57.122089	1.713156E+0	6.736582E-3	1.136420E-3	5.248583E-4	2.408325E-3	1.115863E-2	4.723067E-3	2.225967E-3
10/19/2017  17:30:57.123089	2.149936E+0	1.234344E-3	7.555224E-3	3.973367E-3	6.183646E-3	2.914425E-3	6.097276E-3	4.141533E-3
10/19/2017  17:30:57.124089	1.223483E+0	1.020091E-2	1.122571E-3	1.612707E-3	2.190415E-3	4.283779E-3	3.788661E-4	5.341703E-3
10/19/2017  17:30:57.125089	5.156226E-2	5.387179E-3	1.310766E-3	3.406286E-3	5.373572E-4	7.221376E-3	1.565429E-3	5.252836E-4
10/19/2017  17:30:57.126089	1.010396E+0	1.169505E-2	1.326995E-3	1.944585E-3	4.008779E-3	3.982888E-3	5.014737E-3	1.727998E-3
10/19/2017  17:30:57.127089	1.086827E-2	1.854593E-3	1.181414E-2	5.083865E-3	4.920160E-3	9.752901E-3	3.572598E-3	9.719212E-3
10/19/2017  17:30:57.128089	8.364431E-1	1.047440E-3	9.270646E-3	9.892917E-3	9.884233E-4	5.241240E-4	7.490638E-3	4.178903E-3
10/19/2017  17:30:57.129089	9.190346E-1	5.490829E-3	8.931775E-3	1.307330E-2	8.428069E-3	3.991853E-3	7.844425E-3	1.304145E-2
10/19/2017  17:30:57.130089	9.064075E-2	7.720022E-3	8.261924E-3	1.825406E-2	2.452997E-3	2.741917E-3	5.205627E-3	7.645863E-3
10/19/2017  17:30:57.131089	4.896357E-1	4.080612E-3	1.425074E-2	4.796262E-3	1.495938E-3	1.700461E-3	5.736711E-3	5.192781E-3
10/19/2017  17:30:57.132089	1.407360E+0	6.027256E-3	6.093389E-3	1.906157E-2	1.458749E-3	5.629140E-3	1.522234E-3	9.386171E-4
10/19/2017  17:30:57.133089	1.643913E+0	7.729580E-4	6.536534E-3	6.106235E-3	3.553765E-3	2.285440E-3	1.024692E-2	9.663727E-3
10/19/2017  17:30:57.134089	4.690911E-1	2.960097E-3	4.528996E-3	4.107521E-3	7.087305E-3	7.867006E-3	5.319719E-3	6.882359E-3
10/19/2017  17:30:57.135089	1.150814E+0	5.418127E-3	1.470482E-3	6.036027E-3	8.001134E-3	2.855534E-3	4.963478E-3	4.091858E-3
10/19/2017  17:30:57.136089	8.156155E-1	8.286002E-3	1.007647E-2	1.956565E-2	5.511141E-3	1.389438E-2	3.529567E-3	7.517142E-3
10/19/2017  17:30:57.137089	7.254954E-1	1.788559E-2	5.775337E-3	1.266784E-2	9.549784E-3	8.084088E-3	8.448951E-3	3.167444E-3
10/19/2017  17:30:57.138089	2.746024E-2	1.866046E-3	1.803823E-3	1.381034E-3	6.998365E-3	7.981597E-4	4.907091E-3	6.603639E-3
10/19/2017  17:30:57.139089	2.518883E-1	1.381662E-2	9.794729E-3	2.764534E-3	2.666031E-3	7.184645E-3	1.376254E-3	6.871280E-3
10/19/2017  17:30:57.140089	4.972608E-1	1.065034E-2	4.738658E-3	1.436560E-3	9.262965E-3	6.724309E-4	1.216547E-3	4.061936E-3
10/19/2017  17:30:57.141089	8.043123E-1	1.943388E-3	3.469941E-3	1.793418E-3	2.300900E-3	8.367861E-3	8.568153E-4	9.613364E-3
10/19/2017  17:30:57.142089	2.010729E+0	6.419927E-3	6.184705E-4	1.925195E-3	1.505880E-3	6.311668E-4	2.697605E-3	2.135812E-4
10/19/2017  17:30:57.143089	2.835118E+0	2.896331E-3	5.045070E-3	1.974085E-3	9.966463E-3	1.015545E-2	1.713679E-3	2.044018E-3
10/19/2017  17:30:57.144089	1.095049E+0	1.929534E-3	7.098861E-3	8.846929E-3	4.535707E-4	8.502910E-3	1.270112E-3	3.240310E-3
10/19/2017  17:30:57.145089	1.135529E-2	1.158658E-3	4.694490E-3	5.422143E-3	4.516668E-5	1.513120E-2	3.402019E-3	4.520154E-4
10/19/2017  17:30:57.146089	1.818855E-1	9.622761E-3	5.941104E-3	9.026457E-3	8.937809E-3	4.523939E-3	6.971816E-3	3.709940E-3
10/19/2017  17:30:57.147089	2.378918E+0	1.113309E-2	6.896725E-3	6.917201E-3	6.627159E-3	9.844083E-3	6.029744E-4	6.502949E-3
10/19/2017  17:30:57.148089	1.525130E+0	1.046822E-2	5.131946E-3	7.884413E-3	2.099694E-4	2.511135E-4	4.014673E-3	4.792888E-3
10/19/2017  17:30:57.149089	1.417202E+0	2.996892E-3	6.962056E-4	5.579607E-3	4.445149E-3	2.393140E-3	6.794565E-4	1.824474E-4
								
10/19/2017  17:30:57.150089	1.067097E+0	9.064803E-3	3.764725E-3	4.424258E-3	1.044652E-3	6.386191E-3	1.765805E-3	4.933512E-3
10/19/2017  17:30:57.151089	1.936370E+0	2.032673E-3	6.175300E-3	3.695208E-3	8.042968E-3	1.802247E-3	9.928904E-3	4.513823E-3
10/19/2017  17:30:57.152089	4.342440E+0	3.404613E-3	1.076229E-4	1.368916E-2	1.391548E-2	5.442742E-3	4.083655E-3	4.584959E-3
10/19/2017  17:30:57.153089	1.833060E+0	4.171900E-3	2.101918E-3	9.412653E-3	3.113841E-3	3.008808E-3	9.697846E-3	6.436174E-3
10/19/2017  17:30:57.154089	1.905419E+0	6.343988E-3	5.746687E-3	4.995794E-3	5.249763E-4	8.991529E-3	1.809472E-3	2.277649E-2
10/19/2017  17:30:57.155089	1.586938E+0	7.232250E-3	4.877803E-3	1.957138E-2	1.182948E-2	2.213135E-3	7.871439E-3	7.596794E-3
10/19/2017  17:30:57.156089	1.607936E+0	1.036241E-3	8.014057E-3	3.306166E-3	8.635820E-3	6.102023E-4	3.241037E-3	3.745569E-3
10/19/2017  17:30:57.157089	2.422141E+0	4.736465E-3	1.268706E-3	1.502242E-2	1.596917E-3	1.703761E-3	2.426860E-3	7.500438E-3
10/19/2017  17:30:57.158089	1.375637E+0	2.804541E-3	7.982543E-3	2.754393E-3	3.584111E-3	7.607846E-3	8.584622E-3	9.509542E-3
10/19/2017  17:30:57.159089	6.066677E-1	9.588190E-3	5.641413E-3	6.106057E-3	9.350997E-3	1.009744E-2	6.158496E-3	3.311189E-4
10/19/2017  17:30:57.160089	2.755585E+0	7.346962E-3	4.968368E-3	9.477139E-3	1.025908E-4	7.286718E-3	4.526485E-3	1.144096E-3
10/19/2017  17:30:57.161089	3.033816E+0	3.203660E-3	8.089227E-3	3.424935E-3	1.089730E-2	2.747495E-3	3.062079E-3	2.259026E-3
10/19/2017  17:30:57.162089	2.168428E+0	2.323608E-3	5.150431E-3	2.630296E-3	3.156854E-3	7.168828E-3	4.589295E-3	9.019878E-3
10/19/2017  17:30:57.163089	7.748920E-1	2.512713E-4	6.667026E-4	4.579448E-4	4.770644E-3	7.542306E-3	3.032538E-3	5.988645E-4
10/19/2017  17:30:57.164089	3.254921E-1	8.871951E-5	6.988473E-3	5.418507E-3	1.030381E-2	5.478098E-3	1.883815E-3	1.042494E-3
10/19/2017  17:30:57.165089	1.461933E+0	3.539019E-4	3.910242E-3	1.095495E-2	5.644945E-3	5.962098E-3	3.092114E-3	7.877977E-4
10/19/2017  17:30:57.166089	1.057347E+0	4.869216E-3	5.117895E-3	1.495353E-3	1.037364E-2	4.688548E-4	9.174086E-3	4.464203E-3
10/19/2017  17:30:57.167089	5.062280E-1	5.041649E-3	5.045128E-3	9.713521E-3	2.808512E-4	9.438055E-3	6.832222E-3	8.091999E-3
10/19/2017  17:30:57.168089	1.092867E+0	1.140543E-3	8.274784E-4	4.368917E-3	7.062996E-3	9.009829E-3	5.953445E-3	8.198699E-3
10/19/2017  17:30:57.169089	2.242120E+0	4.728488E-3	7.186474E-3	8.358225E-3	3.423827E-3	4.680264E-3	1.939449E-3	7.462837E-4
10/19/2017  17:30:57.170089	6.987170E-2	8.054480E-3	1.530836E-3	1.068662E-2	2.841196E-3	1.434875E-2	1.056355E-3	3.610836E-3
10/19/2017  17:30:57.171089	1.355738E+0	1.476253E-2	5.597830E-3	1.190175E-2	4.181713E-3	9.486438E-4	9.656754E-3	2.090569E-3
10/19/2017  17:30:57.172089	1.400329E+0	2.687185E-3	4.682579E-3	1.706598E-3	4.697372E-3	9.804133E-3	2.974020E-4	2.490216E-3
10/19/2017  17:30:57.173089	1.139022E+0	8.697030E-3	5.385718E-3	7.510453E-4	6.006524E-3	4.959078E-3	6.481614E-3	3.008301E-3
10/19/2017  17:30:57.174089	8.462082E-1	6.777866E-3	3.457966E-3	8.635382E-3	2.658734E-3	1.233399E-3	4.606676E-3	2.561394E-3
10/19/2017  17:30:57.175089	5.141964E-1	2.477655E-3	4.615565E-3	2.041369E-3	1.312963E-2	5.847037E-3	3.436271E-3	6.478734E-3
10/19/2017  17:30:57.176089	3.389755E-1	2.933574E-3	5.944597E-3	3.662075E-3	5.911678E-3	2.259710E-3	6.922727E-3	2.547458E-3
10/19/2017  17:30:57.177089	7.151891E-1	4.580896E-3	6.654391E-3	3.069313E-4	1.072533E-2	7.983839E-3	1.684707E-3	9.031324E-3
10/19/2017  17:30:57.178089	5.141793E-1	5.586781E-3	2.539121E-3	8.647766E-3	1.226875E-2	9.136849E-4	7.828150E-3	1.826136E-3
10/19/2017  17:30:57.179089	7.559591E-1	1.746626E-3	7.041564E-3	2.555072E-3	8.787268E-3	4.534531E-5	1.107573E-3	9.962590E-3
10/19/2017  17:30:57.180089	1.823284E+0	3.263492E-3	4.991354E-3	6.165703E-3	6.610889E-4	2.798553E-3	5.179634E-4	7.225737E-3
10/19/2017  17:30:57.181089	2.889458E+0	4.565781E-3	3.204651E-3	8.444126E-3	1.010915E-3	1.124746E-2	2.107832E-3	1.019718E-2
10/19/2017  17:30:57.182089	1.533879E+0	7.670668E-3	1.329357E-2	1.629790E-2	9.939352E-3	6.045975E-3	1.039124E-2	1.465471E-3
								
10/19/2017  17:30:57.183089	3.618800E+0	5.448465E-3	5.988440E-3	7.621958E-3	2.976614E-3	2.306514E-3	3.551522E-3	5.491110E-3
10/19/2017  17:30:57.184089	4.134580E+0	6.944267E-3	2.356358E-3	2.848624E-3	2.152161E-3	1.760851E-3	4.822461E-3	1.660321E-3
10/19/2017  17:30:57.185089	7.565958E-1	4.385062E-4	1.813972E-3	5.106656E-3	7.889676E-3	8.563765E-4	3.367781E-3	1.191473E-3
10/19/2017  17:30:57.186089	6.136289E-3	3.514274E-5	8.066119E-4	2.295719E-3	1.366524E-3	7.004316E-3	2.157362E-3	5.367965E-3
10/19/2017  17:30:57.187089	8.416076E-2	1.106697E-2	1.674038E-3	3.136806E-3	1.019060E-2	1.875010E-3	9.622344E-3	2.658223E-3
10/19/2017  17:30:57.188089	2.689305E-1	3.038573E-3	5.245447E-3	2.959217E-3	9.662747E-4	6.068668E-3	3.909798E-3	4.636417E-3
10/19/2017  17:30:57.189089	7.101588E-1	1.280845E-4	9.967734E-3	5.132407E-3	1.003377E-2	2.363798E-3	5.342337E-4	5.353626E-3
10/19/2017  17:30:57.190089	6.950234E-1	2.362442E-3	4.420198E-3	2.113842E-3	2.012857E-3	1.759225E-3	1.922330E-3	3.036973E-3
10/19/2017  17:30:57.191089	7.073025E-1	2.598578E-3	1.248422E-2	3.628107E-3	8.481415E-3	1.247060E-3	7.138970E-4	4.654905E-3
10/19/2017  17:30:57.192089	3.072387E+0	1.251059E-2	1.686209E-3	5.306171E-3	2.023742E-4	5.657279E-3	4.256046E-4	1.306959E-3
10/19/2017  17:30:57.193089	3.492582E+0	2.562185E-3	5.321421E-3	6.287550E-4	6.549201E-3	4.748478E-3	8.429841E-3	1.158111E-3
10/19/2017  17:30:57.194089	2.774058E+0	6.895444E-3	3.129749E-3	5.007948E-3	2.891926E-4	1.238336E-3	7.055820E-4	7.917597E-3
10/19/2017  17:30:57.195089	2.855539E-1	5.438609E-3	2.623432E-3	1.322924E-2	7.827254E-5	1.376009E-2	8.159748E-4	7.507106E-3
10/19/2017  17:30:57.196089	2.704648E+0	1.309551E-2	8.637103E-3	9.933791E-3	1.307897E-2	8.114504E-3	8.953107E-4	1.147356E-3
10/19/2017  17:30:57.197089	4.905458E+0	1.134293E-4	3.926648E-3	1.553548E-3	2.470771E-3	1.059140E-2	5.261690E-3	9.485328E-3
10/19/2017  17:30:57.198089	4.160701E+0	3.223434E-3	3.211147E-4	7.489504E-3	1.181296E-2	5.425639E-3	3.871124E-3	2.237548E-3
10/19/2017  17:30:57.199089	1.585705E+0	9.707941E-3	6.654161E-3	6.389462E-4	6.431601E-3	2.882157E-3	5.935009E-3	1.980272E-3
10/19/2017  17:30:57.200089	2.739129E+0	3.188979E-3	6.064422E-4	2.079973E-3	6.409739E-3	1.263646E-4	1.926401E-3	6.053266E-3
10/19/2017  17:30:57.201089	1.238948E+0	2.689092E-3	2.722794E-3	1.218808E-2	2.340998E-4	2.478055E-3	1.073488E-3	2.069208E-3
10/19/2017  17:30:57.202089	4.357250E+0	8.690603E-3	1.974730E-3	1.790174E-3	6.380726E-3	4.076943E-3	7.527529E-3	7.814479E-3
10/19/2017  17:30:57.203089	3.277085E+0	2.513112E-3	7.289645E-3	7.399316E-3	4.315132E-3	7.904530E-3	5.422392E-3	5.086651E-3
10/19/2017  17:30:57.204089	2.239332E+0	1.861985E-3	3.667152E-3	1.938188E-3	5.465546E-3	3.274011E-3	1.233307E-2	1.012157E-2
10/19/2017  17:30:57.205089	5.422380E+0	2.984455E-3	7.091799E-3	8.618552E-3	1.407849E-3	1.754185E-3	7.037295E-3	3.389135E-3
10/19/2017  17:30:57.206089	3.763724E+0	1.062419E-2	5.884166E-3	1.020942E-2	3.788844E-3	9.839375E-3	5.615362E-3	3.748774E-3
10/19/2017  17:30:57.207089	2.508469E+0	3.850977E-3	4.159461E-3	1.476654E-2	7.400321E-3	3.845265E-3	2.209441E-3	4.259800E-3
10/19/2017  17:30:57.208089	6.193948E-1	7.700324E-3	2.705894E-3	4.171727E-3	1.136263E-3	2.735414E-3	3.274408E-4	5.536665E-3
10/19/2017  17:30:57.209089	2.830098E+0	2.773852E-3	6.617581E-4	1.698668E-2	3.596094E-3	3.962556E-3	8.661699E-3	4.045600E-3
10/19/2017  17:30:57.210089	3.694096E+0	1.503070E-3	1.389722E-2	9.592922E-3	6.140939E-3	3.249705E-4	6.846920E-3	6.082630E-4
10/19/2017  17:30:57.211089	2.456294E+0	4.773562E-3	9.548439E-4	1.533285E-2	4.448212E-3	6.658286E-3	2.605540E-3	4.549476E-3
10/19/2017  17:30:57.212089	1.613815E+0	1.804186E-3	2.025753E-2	3.591070E-3	3.225448E-3	7.082399E-3	7.049256E-3	4.974218E-3
10/19/2017  17:30:57.213089	1.091085E+0	2.229663E-3	3.519448E-3	5.120278E-3	2.192698E-3	5.760779E-4	1.583259E-2	1.012680E-2
10/19/2017  17:30:57.214089	1.665149E+0	1.115155E-2	3.268634E-3	6.929845E-3	2.995570E-3	8.480417E-3	2.358145E-3	7.643512E-3
10/19/2017  17:30:57.215089	2.689299E+0	8.486472E-3	1.163365E-2	5.823964E-3	6.609166E-3	4.858642E-4	8.959674E-3	1.211677E-3
								
10/19/2017  17:30:57.216089	2.089721E+0	2.440238E-3	6.349888E-3	2.643312E-3	4.079089E-3	1.339844E-2	6.893680E-3	5.627946E-3
10/19/2017  17:30:57.217089	1.400081E+0	3.717902E-3	8.105743E-5	2.416968E-3	2.942824E-3	4.670757E-4	1.349938E-3	3.803177E-3
10/19/2017  17:30:57.218089	1.381620E+0	1.356500E-4	4.465278E-3	4.316307E-3	4.148553E-3	1.108202E-2	2.885427E-3	2.038837E-3
10/19/2017  17:30:57.219089	6.612399E-1	3.142839E-4	1.083391E-3	5.482730E-3	8.176366E-3	5.975030E-3	4.893503E-4	1.051021E-2
10/19/2017  17:30:57.220089	1.042617E+0	6.468737E-4	2.853285E-3	4.359520E-4	3.705306E-3	1.524216E-2	9.408494E-3	7.508162E-3
10/19/2017  17:30:57.221089	1.339139E+0	1.207247E-2	2.507522E-3	1.256412E-2	8.351164E-3	6.900684E-3	4.628050E-3	1.013154E-2
10/19/2017  17:30:57.222089	1.030887E+0	9.589789E-3	2.358904E-3	1.544657E-2	6.578570E-4	9.821612E-4	1.196165E-3	5.117847E-3
10/19/2017  17:30:57.223089	9.983412E-1	3.214773E-3	7.232043E-3	4.728775E-3	8.017817E-3	3.178370E-3	5.355445E-3	3.056622E-3
10/19/2017  17:30:57.224089	1.162258E+0	9.296678E-3	3.026109E-3	1.181831E-2	5.209943E-3	4.631678E-3	5.954001E-3	4.502470E-3
10/19/2017  17:30:57.225089	4.531345E-1	8.930492E-3	6.622345E-3	8.022891E-3	7.232155E-4	5.466324E-3	1.116645E-2	1.021454E-3
10/19/2017  17:30:57.226089	7.320227E-1	6.895091E-3	6.780596E-3	8.130290E-3	1.127309E-2	1.477137E-3	3.566651E-3	5.859282E-3
10/19/2017  17:30:57.227089	2.718583E-1	5.071891E-3	6.409730E-3	6.521053E-3	1.512297E-2	7.977154E-3	2.095493E-3	4.564685E-3
10/19/2017  17:30:57.228089	1.934466E-2	1.394897E-3	9.170800E-3	9.990278E-3	4.434513E-3	7.968022E-3	6.107522E-3	1.069099E-3
10/19/2017  17:30:57.229089	2.589740E-1	5.618934E-3	2.215171E-3	4.058734E-3	3.189085E-3	7.522213E-3	2.257723E-3	1.507398E-3
10/19/2017  17:30:57.230089	2.906846E+0	6.068616E-3	4.764051E-4	1.131212E-2	2.173208E-3	9.703871E-3	3.694706E-3	1.145188E-3
10/19/2017  17:30:57.231089	3.863603E+0	4.731198E-3	4.094104E-3	4.679454E-3	1.025457E-2	4.309769E-3	6.244979E-3	7.796685E-3
10/19/2017  17:30:57.232089	3.281702E+0	3.714168E-3	7.178269E-4	6.240209E-3	3.905690E-3	5.609159E-3	4.495084E-3	9.046138E-4
10/19/2017  17:30:57.233089	7.835270E-1	6.958681E-4	6.075640E-3	4.965068E-3	7.481216E-3	4.150906E-3	7.771322E-3	1.981611E-3
10/19/2017  17:30:57.234089	4.805959E-1	7.949172E-3	4.207819E-3	1.127793E-2	5.412967E-3	1.405225E-3	9.777957E-3	2.465875E-3
10/19/2017  17:30:57.235089	2.324436E-1	5.670723E-3	5.992529E-3	1.346136E-3	4.978176E-3	7.504067E-3	4.363390E-3	1.193504E-3
10/19/2017  17:30:57.236089	5.826911E-1	2.325767E-3	4.444023E-3	6.113773E-3	7.903401E-3	1.415821E-3	1.870631E-2	6.306900E-3
10/19/2017  17:30:57.237089	9.949421E-1	2.014538E-3	7.673594E-3	2.831389E-3	3.363924E-3	2.990954E-3	2.035774E-3	9.303484E-3
10/19/2017  17:30:57.238089	4.792276E-1	2.581524E-3	3.397244E-3	6.846023E-3	1.619927E-3	4.835180E-4	3.454790E-4	2.411256E-3
10/19/2017  17:30:57.239089	3.292162E-1	5.060123E-3	8.208476E-3	5.693587E-3	7.678322E-4	7.788730E-3	4.467661E-3	5.176537E-4
10/19/2017  17:30:57.240089	1.435611E+0	1.337742E-2	3.277019E-3	2.823439E-3	2.090020E-3	1.782617E-3	8.714170E-4	2.622681E-3
10/19/2017  17:30:57.241089	1.585545E+0	4.236629E-3	9.275696E-3	1.921340E-4	8.885410E-3	1.082525E-2	6.807884E-3	2.847645E-4
10/19/2017  17:30:57.242089	1.118197E+0	6.009163E-3	8.862741E-3	2.609057E-3	7.482255E-3	1.778550E-3	2.219789E-3	6.671540E-3
10/19/2017  17:30:57.243089	7.658898E-1	7.067616E-3	2.666262E-3	2.061467E-3	6.007953E-3	3.841434E-3	4.357345E-3	6.619578E-3
10/19/2017  17:30:57.244089	2.089545E+0	5.414561E-3	4.407586E-3	4.927359E-3	6.873878E-3	1.314344E-3	5.739198E-3	1.104755E-2
10/19/2017  17:30:57.245089	2.581243E+0	3.332551E-3	7.469780E-3	9.747377E-3	5.788072E-3	5.832026E-3	2.177260E-3	6.042407E-3
10/19/2017  17:30:57.246089	1.004192E+0	1.347569E-2	4.842695E-3	6.272704E-3	9.170625E-3	4.227963E-3	2.639873E-3	4.298884E-3
10/19/2017  17:30:57.247089	1.888590E+0	5.557862E-3	2.662480E-3	2.465137E-2	6.443137E-3	5.008395E-3	3.823408E-3	9.376404E-3
10/19/2017  17:30:57.248089	2.581771E+0	3.902479E-3	1.207317E-2	1.771330E-2	1.073308E-2	7.446738E-3	1.992918E-3	3.924633E-3
								
10/19/2017  17:30:57.249089	3.065383E+0	3.331548E-4	1.355808E-2	3.298834E-3	5.280895E-3	4.174036E-3	8.270932E-3	1.320579E-2
10/19/2017  17:30:57.250089	3.380933E+0	2.304136E-3	5.380317E-3	1.113583E-3	1.103935E-3	1.028463E-2	1.241297E-2	3.404260E-3
10/19/2017  17:30:57.251089	2.023644E+0	8.464913E-3	7.261378E-3	3.926251E-3	3.552360E-3	7.802708E-3	3.231837E-4	5.303471E-4
10/19/2017  17:30:57.252089	1.187265E+0	4.090095E-4	7.417066E-3	5.984001E-4	2.035600E-2	7.888889E-4	7.394460E-3	1.140109E-2
10/19/2017  17:30:57.253089	2.613245E+0	2.448314E-3	7.933314E-3	1.559213E-3	5.254213E-3	9.082052E-3	3.576447E-3	5.052949E-3
10/19/2017  17:30:57.254089	3.965197E+0	4.850617E-3	3.506886E-3	6.579942E-3	6.167093E-3	2.669783E-3	3.612168E-3	1.453695E-2
10/19/2017  17:30:57.255089	1.833308E+0	8.924787E-4	2.296443E-3	1.151162E-2	5.134689E-5	8.901989E-3	5.025920E-5	3.059342E-3
10/19/2017  17:30:57.256089	1.213422E+0	6.601014E-4	1.282714E-3	1.284323E-2	3.983648E-5	2.100681E-3	1.579334E-3	1.130935E-2
10/19/2017  17:30:57.257089	1.995596E+0	3.867594E-3	8.191150E-3	1.047609E-2	4.444711E-3	8.819725E-4	1.032254E-2	5.297052E-4
10/19/2017  17:30:57.258089	4.291011E-1	3.835492E-3	1.711894E-3	2.426978E-3	3.401605E-3	3.006267E-3	5.510875E-3	2.568919E-3
10/19/2017  17:30:57.259089	1.097184E+0	4.880797E-3	5.177657E-3	7.368568E-4	6.728084E-3	2.068907E-3	8.988835E-3	3.929040E-3
10/19/2017  17:30:57.260089	1.022161E+0	5.381661E-3	3.399582E-3	7.070022E-3	1.341810E-4	8.548546E-4	1.740930E-3	3.909804E-3
10/19/2017  17:30:57.261089	3.106762E-1	9.665756E-3	8.876244E-3	5.948847E-3	3.340474E-4	7.246938E-3	1.438214E-2	7.218727E-3
10/19/2017  17:30:57.262089	2.614647E+0	6.742209E-4	1.733763E-2	9.224299E-3	1.464100E-3	7.919580E-3	5.521339E-4	6.138632E-4
10/19/2017  17:30:57.263089	2.920751E+0	3.647789E-3	3.170570E-3	4.679516E-3	6.011056E-3	9.438474E-4	3.803731E-3	1.068733E-4
10/19/2017  17:30:57.264089	4.037135E+0	4.402012E-3	1.588652E-2	3.320971E-3	8.992824E-3	9.980023E-3	1.895605E-3	4.624546E-3
10/19/2017  17:30:57.265089	3.405145E+0	1.041668E-2	7.330194E-3	8.617646E-3	8.738084E-3	2.067633E-3	5.947894E-3	1.379719E-3
10/19/2017  17:30:57.266089	7.494344E-1	7.695515E-3	2.992325E-3	7.630626E-3	8.113158E-3	8.533186E-3	4.297521E-3	7.470073E-3
10/19/2017  17:30:57.267089	2.098293E+0	3.250521E-3	6.771139E-3	2.197029E-3	7.899245E-3	8.502456E-3	1.404414E-3	2.666023E-3
10/19/2017  17:30:57.268089	5.414011E+0	2.358495E-3	1.610474E-3	1.363688E-2	1.802666E-3	1.023397E-2	5.452505E-3	5.296350E-3
10/19/2017  17:30:57.269089	5.258546E+0	1.566023E-2	1.085410E-3	8.402780E-3	8.175748E-3	6.315544E-3	5.216109E-4	4.371487E-3
10/19/2017  17:30:57.270089	3.655839E+0	1.312558E-2	6.446457E-4	6.482200E-3	5.878771E-4	1.369282E-2	2.660255E-3	7.245083E-3
10/19/2017  17:30:57.271089	4.154116E-1	1.169889E-2	4.599364E-3	3.795526E-3	3.915425E-4	1.135479E-3	6.248567E-3	6.359536E-3
10/19/2017  17:30:57.272089	6.215881E-1	7.149934E-3	5.045549E-3	4.500921E-3	4.570627E-3	7.960333E-3	2.249203E-3	1.351791E-3
10/19/2017  17:30:57.273089	2.659158E+0	1.164393E-3	5.715923E-3	8.218112E-3	7.370404E-3	3.136959E-3	8.278951E-3	1.837467E-3
10/19/2017  17:30:57.274089	2.345388E+0	1.553022E-3	4.616735E-3	2.301936E-4	1.044997E-2	4.529868E-3	7.136636E-4	8.411164E-3
10/19/2017  17:30:57.275089	3.071407E+0	3.453589E-3	5.806059E-3	4.536623E-3	5.509825E-3	5.331888E-3	2.864985E-3	4.147002E-3
10/19/2017  17:30:57.276089	2.743124E+0	3.511788E-4	7.223178E-5	1.308781E-3	2.643255E-3	5.142798E-3	6.458376E-3	3.040512E-3
10/19/2017  17:30:57.277089	1.752627E+0	4.572775E-3	4.302882E-3	7.538655E-3	6.252029E-3	5.987761E-3	2.040785E-3	8.709922E-3
10/19/2017  17:30:57.278089	1.836763E+0	5.227977E-3	2.824634E-3	1.023070E-2	2.249220E-3	1.630771E-4	1.604569E-3	4.804314E-3
10/19/2017  17:30:57.279089	2.407643E+0	3.212728E-3	1.566896E-2	5.298132E-3	1.778107E-3	2.889245E-4	5.535959E-3	9.992515E-3
10/19/2017  17:30:57.280089	8.656727E-1	9.187146E-3	6.662779E-3	2.525665E-2	5.677860E-3	4.705643E-3	1.627162E-3	4.597328E-3
10/19/2017  17:30:57.281089	1.682511E+0	2.294010E-3	1.098067E-2	1.129652E-2	4.780869E-3	1.205795E-3	5.605593E-3	3.887655E-3
								
10/19/2017  17:30:57.282089	3.196714E+0	7.095941E-3	5.951197E-3	2.856692E-2	8.632043E-4	3.528400E-3	1.273395E-2	5.579098E-3
10/19/2017  17:30:57.283089	1.799919E+0	7.049676E-3	8.726894E-3	1.379700E-2	2.703044E-3	6.770179E-3	4.314192E-3	1.262491E-4
10/19/2017  17:30:57.284089	9.633559E-2	4.136698E-3	1.596030E-3	1.853826E-3	6.037659E-3	2.289741E-3	1.325440E-3	4.879765E-3
10/19/2017  17:30:57.285089	1.974909E+0	1.636246E-2	7.975032E-3	1.312986E-2	3.783299E-3	7.565977E-3	7.771793E-3	6.989239E-3
10/19/2017  17:30:57.286089	9.605184E-1	6.717501E-4	5.848297E-4	5.588078E-3	4.579296E-3	7.878052E-3	5.592161E-3	4.261862E-3
10/19/2017  17:30:57.287089	1.877680E+0	2.058665E-3	2.240854E-4	7.332355E-5	1.262979E-2	1.271925E-3	4.884799E-3	7.278058E-4
10/19/2017  17:30:57.288089	7.172382E-1	3.965797E-3	6.602463E-5	4.507637E-3	1.585318E-3	1.398012E-3	1.006873E-2	4.398611E-3
10/19/2017  17:30:57.289089	1.086173E+0	7.339217E-3	8.931265E-3	7.519571E-3	9.564660E-3	1.046163E-3	3.931666E-3	7.016327E-4
10/19/2017  17:30:57.290089	1.826262E-1	7.969766E-4	4.530860E-3	7.183067E-3	1.844981E-3	1.020844E-2	1.385377E-2	2.172419E-3
10/19/2017  17:30:57.291089	2.822409E+0	2.507013E-3	7.544123E-3	1.071243E-2	4.590834E-4	8.064808E-3	3.084384E-3	2.297565E-3
10/19/2017  17:30:57.292089	6.507314E+0	1.582959E-2	1.448988E-3	1.233887E-2	2.802101E-3	5.749588E-3	7.022486E-3	1.055769E-3
10/19/2017  17:30:57.293089	4.609861E+0	1.915755E-3	1.410755E-3	1.508811E-2	7.261285E-3	1.347065E-2	1.078879E-3	6.729609E-5
10/19/2017  17:30:57.294089	2.956441E+0	1.679462E-2	7.824605E-3	9.851428E-4	2.786819E-3	3.525030E-3	1.097881E-3	5.014261E-3
10/19/2017  17:30:57.295089	4.264011E+0	5.143719E-3	8.669126E-4	1.694622E-2	7.464059E-3	1.652571E-3	1.089783E-3	1.279946E-2
10/19/2017  17:30:57.296089	5.952870E+0	1.378978E-3	7.092302E-3	1.477780E-2	4.932351E-3	3.132181E-3	3.256481E-3	9.183559E-3
10/19/2017  17:30:57.297089	2.299572E+0	1.255506E-2	2.600988E-3	6.069836E-3	1.548540E-3	8.922216E-3	4.047721E-3	2.524698E-3
10/19/2017  17:30:57.298089	1.263877E+0	4.955686E-3	2.942572E-3	1.347319E-2	1.700276E-2	8.569156E-3	6.812141E-5	6.588680E-3
10/19/2017  17:30:57.299089	2.224004E+0	3.576106E-3	2.510851E-3	3.298528E-3	7.780456E-4	7.391389E-4	5.016906E-3	6.292854E-4
10/19/2017  17:30:57.300089	2.217362E+0	2.401253E-3	5.438963E-5	8.537706E-3	5.986773E-4	9.766094E-4	2.025002E-3	6.649615E-4
10/19/2017  17:30:57.301089	2.036370E-1	7.220485E-3	1.107400E-2	1.531262E-3	8.175259E-3	9.780997E-3	6.287214E-3	5.778059E-3
10/19/2017  17:30:57.302089	1.545191E+0	5.205202E-3	5.187307E-3	7.941317E-3	1.839405E-2	4.899739E-3	3.860050E-3	6.919372E-4
10/19/2017  17:30:57.303089	3.002086E+0	8.052050E-4	3.722019E-3	1.658146E-2	2.097112E-3	3.166496E-3	1.867390E-4	3.224463E-3
10/19/2017  17:30:57.304089	2.574805E+0	7.267357E-3	3.415416E-4	1.750344E-3	7.574566E-3	2.086641E-4	6.803749E-3	1.359262E-2
10/19/2017  17:30:57.305089	1.256234E+0	7.265081E-3	2.111543E-3	1.925165E-2	3.365589E-3	4.081045E-3	3.571641E-3	1.127977E-3
10/19/2017  17:30:57.306089	1.002481E+0	3.899272E-3	1.025882E-2	1.415190E-3	4.476425E-3	3.827594E-3	8.541271E-3	3.043201E-3
10/19/2017  17:30:57.307089	1.157237E+0	3.304463E-3	3.811520E-3	1.032832E-3	6.920025E-4	2.888096E-3	8.226898E-3	8.593404E-3
10/19/2017  17:30:57.308089	6.684693E-1	6.817523E-3	1.305985E-3	5.912653E-3	2.130205E-3	4.392486E-3	3.216336E-3	3.528515E-3
10/19/2017  17:30:57.309089	1.585815E+0	8.829067E-4	8.068685E-3	2.309644E-3	6.293836E-3	7.906840E-4	9.214715E-3	4.657533E-3
10/19/2017  17:30:57.310089	3.028485E+0	1.245411E-3	7.119958E-3	1.460111E-2	3.983481E-4	1.265057E-2	4.109831E-3	6.080875E-3
10/19/2017  17:30:57.311089	6.343545E-1	3.782783E-3	1.735969E-3	1.137562E-3	5.005484E-4	4.162506E-3	1.132429E-2	4.706952E-3
10/19/2017  17:30:57.312089	2.751994E+0	2.935498E-3	1.594091E-3	4.364978E-3	3.738799E-3	5.308933E-3	1.330988E-3	1.359272E-3
10/19/2017  17:30:57.313089	7.730424E-1	4.358029E-3	5.024597E-3	1.036029E-2	6.572988E-3	5.896592E-3	1.844444E-3	7.586050E-3
10/19/2017  17:30:57.314089	1.117783E-2	8.576976E-4	3.443021E-3	1.284061E-3	1.339546E-2	4.455359E-4	8.693649E-3	5.027631E-3
								
10/19/2017  17:30:57.315089	1.281393E-1	8.196828E-3	9.430753E-3	5.511196E-3	7.742597E-3	2.864417E-3	6.824212E-3	3.565248E-3
10/19/2017  17:30:57.316089	2.989969E-1	5.710076E-3	4.692949E-3	6.815051E-3	3.330837E-3	4.133733E-3	5.204595E-3	1.395422E-2
10/19/2017  17:30:57.317089	3.539072E-1	7.160509E-3	5.420495E-3	1.104843E-2	2.173444E-3	1.047462E-2	4.817067E-3	7.801769E-4
10/19/2017  17:30:57.318089	3.371282E-1	5.329354E-3	3.821949E-3	8.060009E-3	6.051692E-3	5.374888E-3	5.324990E-3	9.211551E-3
10/19/2017  17:30:57.319089	3.418205E-1	5.921239E-3	1.835802E-3	1.718195E-2	4.236793E-3	7.356620E-4	3.219956E-3	2.412035E-3
10/19/2017  17:30:57.320089	1.752602E+0	2.587560E-3	5.841609E-3	3.519681E-3	5.943326E-3	5.117322E-3	9.265234E-3	4.211566E-3
10/19/2017  17:30:57.321089	1.055717E+0	1.079140E-2	4.138172E-3	4.363964E-3	6.530044E-3	5.881887E-3	2.608842E-4	9.997144E-4
10/19/2017  17:30:57.322089	1.087149E-1	3.213082E-3	5.939264E-3	9.140855E-4	6.334974E-3	2.493168E-3	1.925251E-3	2.949134E-3
10/19/2017  17:30:57.323089	9.742437E-1	2.032090E-4	4.303546E-3	1.850967E-3	8.822426E-3	2.354270E-3	3.414972E-3	4.197818E-3
10/19/2017  17:30:57.324089	2.315947E+0	6.659043E-3	3.551818E-3	8.119489E-3	6.358433E-4	7.246808E-3	2.149033E-3	5.501732E-4
10/19/2017  17:30:57.325089	2.870099E+0	4.508478E-3	4.727846E-3	2.839087E-3	1.611536E-2	3.055624E-3	1.750191E-3	6.467849E-3
10/19/2017  17:30:57.326089	7.157935E-1	8.082119E-3	1.137037E-3	1.533531E-2	1.598061E-3	6.577462E-3	5.698306E-3	8.163638E-3
10/19/2017  17:30:57.327089	8.493585E-1	3.862229E-3	1.146697E-3	1.777572E-3	5.646356E-3	2.409828E-3	1.789154E-3	5.465977E-3
10/19/2017  17:30:57.328089	1.321158E+0	2.817482E-3	8.085901E-3	3.799467E-3	3.983516E-3	2.888401E-3	9.772931E-3	2.854472E-5
10/19/2017  17:30:57.329089	1.436470E+0	4.541667E-3	1.415994E-3	5.533072E-3	4.282262E-4	4.440518E-3	1.751019E-3	1.764550E-2
10/19/2017  17:30:57.330089	1.391223E+0	1.162042E-3	1.300063E-3	4.239204E-3	2.154409E-3	3.266302E-3	5.138953E-3	4.970331E-3
10/19/2017  17:30:57.331089	7.501421E-2	9.067968E-4	1.184332E-2	4.073966E-3	1.106383E-3	2.139610E-3	3.086930E-3	3.778493E-3
10/19/2017  17:30:57.332089	1.437390E+0	5.002513E-3	5.660676E-4	3.425528E-3	1.898932E-3	1.630661E-3	1.485736E-2	2.751052E-3
10/19/2017  17:30:57.333089	1.691561E+0	7.712391E-3	1.383921E-2	9.300291E-3	1.847596E-3	3.121097E-3	3.148626E-3	2.837678E-4
10/19/2017  17:30:57.334089	9.078215E-1	1.015464E-2	3.139275E-3	6.612218E-3	4.092514E-4	4.403949E-3	1.818792E-2	4.630330E-3
10/19/2017  17:30:57.335089	1.525454E+0	3.160195E-3	2.050754E-3	6.258430E-6	4.501506E-3	7.641592E-3	8.779316E-3	5.397980E-3
10/19/2017  17:30:57.336089	2.792593E+0	4.172475E-3	1.368390E-3	1.666114E-3	1.356704E-3	1.320521E-3	1.138545E-2	1.020340E-2
10/19/2017  17:30:57.337089	2.285220E+0	3.699301E-3	7.279404E-3	4.872974E-3	1.201602E-2	7.741437E-3	4.722219E-4	1.958052E-3
10/19/2017  17:30:57.338089	1.828557E-1	7.048160E-3	1.790507E-3	3.874133E-4	1.117849E-2	3.090826E-3	1.817917E-3	4.211695E-3
10/19/2017  17:30:57.339089	2.481842E+0	4.804848E-3	3.966553E-3	2.965790E-3	3.594252E-3	6.520880E-3	3.074602E-3	7.851709E-3
10/19/2017  17:30:57.340089	3.929789E+0	1.002242E-2	1.186660E-2	3.188672E-3	8.522530E-3	1.818651E-4	6.436755E-3	4.970162E-3
10/19/2017  17:30:57.341089	4.540576E+0	3.000943E-3	2.645217E-4	1.841943E-2	2.628450E-3	6.572440E-3	1.101744E-4	7.475548E-3
10/19/2017  17:30:57.342089	2.135769E+0	2.976818E-5	6.849702E-3	1.130818E-2	1.905984E-3	2.509947E-3	9.191361E-3	6.223504E-3
10/19/2017  17:30:57.343089	1.595274E+0	5.497037E-5	4.869790E-4	7.306136E-3	1.314473E-3	4.855945E-3	1.914170E-3	9.379396E-3
10/19/2017  17:30:57.344089	2.681313E-1	1.734085E-2	1.963672E-3	5.275827E-3	7.816059E-3	3.011358E-3	9.916293E-4	3.866895E-3
10/19/2017  17:30:57.345089	1.522830E+0	5.581267E-3	3.641862E-3	2.909474E-3	1.140056E-3	9.699445E-5	9.084644E-4	6.740694E-3
10/19/2017  17:30:57.346089	1.752770E+0	1.109906E-2	2.514719E-3	3.373857E-5	1.190438E-2	2.336476E-3	7.798618E-3	1.095914E-2
10/19/2017  17:30:57.347089	1.396996E+0	3.799072E-3	5.947222E-4	4.199579E-3	3.504304E-4	2.633287E-3	7.908428E-3	1.638116E-3
								
10/19/2017  17:30:57.348089	5.611512E-1	3.792427E-3	1.484629E-3	2.726755E-3	1.133104E-2	4.703757E-3	3.792575E-3	9.958068E-3
10/19/2017  17:30:57.349089	1.045271E+0	1.704616E-3	7.200547E-3	1.360238E-2	5.719185E-3	3.290836E-3	5.799463E-3	1.808042E-3
10/19/2017  17:30:57.350089	1.264071E+0	5.584112E-3	1.340610E-4	7.450822E-3	5.689128E-3	4.374795E-3	5.942934E-3	2.703667E-3
10/19/2017  17:30:57.351089	3.964169E-1	3.787443E-3	9.350504E-3	4.702428E-4	7.658096E-3	7.554498E-3	7.494673E-4	2.862810E-3
10/19/2017  17:30:57.352089	1.399125E+0	2.035299E-3	7.165448E-3	4.647337E-3	6.179696E-3	1.301235E-3	5.596602E-3	1.543185E-2
10/19/2017  17:30:57.353089	3.294838E+0	6.178313E-3	9.635951E-4	6.022933E-3	5.590691E-4	7.636570E-3	4.565605E-3	8.583853E-3
10/19/2017  17:30:57.354089	2.283723E+0	8.361605E-3	7.253667E-3	4.620672E-3	3.019233E-3	3.262367E-3	1.486558E-3	1.036291E-2
10/19/2017  17:30:57.355089	4.385793E-1	3.173350E-3	1.525979E-3	1.638203E-2	3.593515E-4	6.651349E-3	2.938551E-3	3.991434E-3
10/19/2017  17:30:57.356089	8.303411E-2	1.353805E-2	3.489208E-3	4.008955E-3	4.946865E-3	2.019197E-3	5.041417E-4	1.205051E-2
10/19/2017  17:30:57.357089	8.656790E-1	9.648127E-4	8.192550E-3	5.597088E-3	8.039162E-3	3.874809E-3	1.329421E-3	4.251701E-3
10/19/2017  17:30:57.358089	9.344546E-1	4.822568E-4	5.394106E-3	3.707008E-5	3.097629E-3	5.043769E-3	4.021645E-4	4.982705E-3
10/19/2017  17:30:57.359089	4.831591E-1	8.807162E-5	1.205195E-2	2.535827E-3	4.507033E-3	2.989098E-3	8.313469E-3	5.551230E-3
10/19/2017  17:30:57.360089	3.296371E-2	4.543786E-3	2.517874E-3	6.396218E-3	7.657234E-3	6.490260E-3	1.015979E-2	3.144954E-5
10/19/2017  17:30:57.361089	4.694089E-1	3.371467E-3	2.277075E-3	4.080927E-3	9.002514E-4	4.244971E-3	1.872805E-2	2.454811E-3
10/19/2017  17:30:57.362089	5.946032E-1	4.100878E-3	1.207777E-2	6.428856E-4	1.880195E-3	1.179042E-2	4.605123E-3	1.609684E-4
10/19/2017  17:30:57.363089	2.164420E-1	4.971896E-3	9.554031E-3	2.957349E-4	2.656902E-3	6.108304E-4	3.683445E-3	4.175693E-3
10/19/2017  17:30:57.364089	4.043074E-1	5.445278E-3	9.638507E-3	2.754595E-5	7.222367E-3	3.390124E-3	5.239816E-3	6.106227E-3
10/19/2017  17:30:57.365089	3.104887E-1	1.487709E-2	2.804524E-3	4.492463E-3	7.546253E-3	6.895342E-3	1.862188E-3	4.620345E-3
10/19/2017  17:30:57.366089	1.120759E+0	6.207103E-4	4.404609E-3	3.215254E-3	5.546131E-3	7.561667E-3	4.925159E-3	9.757266E-4
10/19/2017  17:30:57.367089	3.869060E-1	1.827859E-2	7.520058E-4	3.453724E-5	4.753322E-3	1.242131E-3	1.257054E-3	7.124031E-3
10/19/2017  17:30:57.368089	1.062538E+0	4.368785E-3	4.084999E-3	2.433866E-4	3.195494E-3	1.174958E-2	1.400324E-3	4.193715E-4
10/19/2017  17:30:57.369089	1.032057E+0	1.833067E-2	5.226092E-3	4.145489E-4	6.611372E-3	2.835699E-3	3.659518E-3	8.772139E-3
10/19/2017  17:30:57.370089	3.512930E-1	5.524356E-4	1.473267E-3	1.240997E-2	2.069231E-3	3.012689E-4	8.569915E-4	8.521583E-3
10/19/2017  17:30:57.371089	1.160808E+0	1.246296E-3	3.487206E-3	2.749530E-3	4.728461E-3	1.495030E-3	1.153444E-3	2.870977E-3
10/19/2017  17:30:57.372089	4.838308E-1	3.921727E-3	4.767551E-3	2.010249E-2	5.041043E-3	8.119905E-3	6.813894E-3	4.508709E-3
10/19/2017  17:30:57.373089	2.157863E-1	7.892403E-3	9.634497E-3	5.787887E-3	1.233460E-2	6.069075E-3	1.876574E-3	9.826687E-3
10/19/2017  17:30:57.374089	1.018768E-1	3.955627E-3	8.738814E-3	4.802822E-3	9.179003E-3	2.159085E-3	1.480113E-2	4.065305E-3
10/19/2017  17:30:57.375089	1.046226E+0	1.201629E-3	7.490696E-3	1.429296E-3	4.800069E-6	7.245384E-3	2.460505E-3	5.260283E-3
10/19/2017  17:30:57.376089	6.323944E-1	3.785165E-3	1.626906E-3	5.374545E-3	2.017220E-3	7.363020E-4	3.445026E-5	1.555916E-3
10/19/2017  17:30:57.377089	2.220533E-1	7.311061E-4	1.705388E-3	2.955293E-3	9.737096E-4	6.155422E-3	2.510615E-3	9.587737E-3
10/19/2017  17:30:57.378089	8.950469E-2	7.126680E-3	1.733987E-3	1.100358E-2	9.493689E-4	1.083593E-2	6.850743E-5	4.545053E-3
10/19/2017  17:30:57.379089	3.382088E-1	1.571051E-3	3.879209E-3	5.311895E-3	9.162928E-4	5.755404E-3	2.406692E-3	1.241478E-2
10/19/2017  17:30:57.380089	9.037209E-3	1.324021E-3	5.518527E-3	1.466934E-2	5.615029E-3	4.534393E-3	6.243765E-3	1.888669E-3
								
10/19/2017  17:30:57.381089	4.302594E-1	3.278211E-3	1.194370E-3	9.538325E-3	5.122968E-3	3.476317E-3	7.705897E-5	5.619204E-3
10/19/2017  17:30:57.382089	9.551314E-2	1.914607E-3	1.066669E-2	2.808166E-3	6.167423E-3	8.225252E-3	2.079115E-3	6.086309E-4
10/19/2017  17:30:57.383089	6.091621E-1	9.857366E-3	3.634623E-3	4.309969E-3	6.652408E-3	1.019933E-3	5.240078E-3	9.414935E-3
10/19/2017  17:30:57.384089	1.984536E-1	2.120033E-3	5.909534E-3	4.896007E-3	1.932549E-4	3.123008E-3	1.559262E-2	4.542717E-3
10/19/2017  17:30:57.385089	1.360816E+0	5.788043E-3	1.681928E-2	1.006978E-2	1.996708E-3	3.756446E-3	4.702367E-3	3.508947E-3
10/19/2017  17:30:57.386089	1.859964E-1	9.134727E-3	1.071173E-2	1.609329E-2	3.322168E-3	8.975760E-3	4.076827E-3	2.691019E-3
10/19/2017  17:30:57.387089	1.066754E+0	3.801456E-4	2.147754E-2	6.256552E-3	4.868696E-3	1.130965E-2	7.821794E-3	4.487439E-3
10/19/2017  17:30:57.388089	6.594686E-1	1.022871E-2	2.333204E-3	9.147722E-3	7.156238E-4	4.785798E-3	5.855624E-4	2.959928E-3
10/19/2017  17:30:57.389089	3.860378E-1	7.828022E-5	2.966478E-3	2.540323E-5	3.679271E-4	7.522336E-3	4.424229E-3	1.125793E-2
10/19/2017  17:30:57.390089	3.592062E-2	1.162581E-2	4.536251E-3	2.225657E-3	2.073476E-3	1.246215E-2	4.784976E-3	5.881765E-3
10/19/2017  17:30:57.391089	1.100563E+0	4.462406E-3	5.303300E-3	5.902204E-3	5.841254E-4	6.863781E-3	6.027626E-3	4.408446E-4
10/19/2017  17:30:57.392089	8.700407E-1	9.514375E-3	3.464800E-3	6.863369E-3	8.957249E-3	1.828986E-3	7.126784E-3	3.624329E-3
10/19/2017  17:30:57.393089	1.550656E+0	3.161780E-4	2.399555E-3	7.116977E-3	2.760325E-3	1.571139E-3	5.470741E-3	6.612317E-3
10/19/2017  17:30:57.394089	7.941602E-1	2.038075E-2	1.008917E-4	4.801076E-3	1.110987E-2	2.965133E-3	1.880006E-3	7.688201E-4
10/19/2017  17:30:57.395089	4.328798E-1	6.381287E-4	7.145705E-3	7.141251E-4	7.967399E-3	1.733807E-3	3.517406E-3	8.700388E-4
10/19/2017  17:30:57.396089	8.206979E-1	2.828983E-3	1.144385E-3	1.311503E-2	1.200116E-2	5.027932E-3	4.115207E-3	3.085067E-3
10/19/2017  17:30:57.397089	2.822324E+0	4.323648E-3	1.032512E-3	1.817621E-2	4.214496E-3	6.180363E-4	5.662484E-3	2.366155E-4
10/19/2017  17:30:57.398089	1.268379E+0	1.556859E-3	4.674032E-3	7.138227E-3	1.595527E-3	1.131040E-2	1.629092E-3	8.975710E-3
10/19/2017  17:30:57.399089	2.279485E+0	5.766825E-3	1.609380E-3	1.862302E-2	3.558475E-3	6.498661E-3	1.391918E-3	6.208618E-3
10/19/2017  17:30:57.400089	2.951898E-2	2.224897E-3	8.279734E-3	2.031892E-3	9.141430E-3	1.546779E-3	5.705823E-3	4.750152E-3
10/19/2017  17:30:57.401089	1.159289E+0	2.944066E-3	4.533463E-3	2.609886E-3	4.064066E-3	1.390231E-3	4.265928E-3	3.841262E-3
10/19/2017  17:30:57.402089	5.027473E-1	8.550460E-3	8.079967E-3	1.147481E-2	2.332098E-3	3.009849E-3	8.865563E-4	9.522923E-3
10/19/2017  17:30:57.403089	8.108961E-1	8.766171E-4	1.699832E-3	1.893412E-2	1.256213E-3	1.032714E-2	1.587422E-3	2.338423E-4
10/19/2017  17:30:57.404089	9.815782E-1	9.843270E-3	2.965718E-3	9.029073E-3	1.694784E-3	4.366007E-3	5.452017E-3	1.882792E-6
10/19/2017  17:30:57.405089	6.669830E-1	7.783271E-4	1.861170E-3	2.911111E-3	6.333167E-3	6.185065E-3	1.493937E-3	4.502583E-3
10/19/2017  17:30:57.406089	3.069254E-1	3.606624E-3	5.280942E-3	4.917647E-3	3.541519E-3	9.423929E-3	5.772939E-3	7.540575E-3
10/19/2017  17:30:57.407089	3.630282E-1	6.377956E-3	9.811000E-3	1.865338E-3	3.843443E-4	2.710074E-3	1.292243E-2	3.591722E-3
10/19/2017  17:30:57.408089	9.883684E-1	1.815487E-3	1.809155E-2	3.819031E-4	3.256380E-3	6.570915E-3	2.357213E-3	2.839705E-3
10/19/2017  17:30:57.409089	7.713409E-2	5.461789E-3	7.048400E-3	1.948547E-3	3.068391E-3	4.315278E-3	3.250611E-3	1.082116E-2
10/19/2017  17:30:57.410089	2.630323E-2	5.141464E-3	7.505565E-3	3.533403E-3	7.164424E-3	1.264145E-2	9.347730E-3	9.504292E-4
10/19/2017  17:30:57.411089	1.580912E-1	1.040921E-2	4.025958E-3	5.195153E-3	1.153193E-3	5.313481E-4	3.879286E-4	4.078653E-3
10/19/2017  17:30:57.412089	5.301245E-1	2.926279E-3	5.744698E-3	1.049214E-2	1.104439E-3	1.759389E-3	4.712482E-3	5.386033E-3
10/19/2017  17:30:57.413089	1.743264E+0	4.789665E-3	4.016920E-3	7.326999E-3	3.309716E-3	5.283463E-3	1.027789E-3	3.826931E-4
								
10/19/2017  17:30:57.414089	2.335283E+0	3.683351E-3	2.160117E-3	1.046710E-2	2.005563E-3	7.141065E-4	5.128702E-3	8.833029E-3
10/19/2017  17:30:57.415089	6.919210E-1	8.057460E-3	5.832924E-3	1.205036E-2	7.693815E-3	5.044187E-3	2.939880E-3	1.537414E-3
10/19/2017  17:30:57.416089	1.436023E+0	5.471626E-3	1.139304E-2	3.174320E-4	1.342914E-3	1.012315E-2	2.142913E-3	1.246639E-2
10/19/2017  17:30:57.417089	6.770126E-1	4.203019E-3	1.953258E-3	1.354617E-2	7.506937E-3	1.792284E-3	1.461423E-3	4.154846E-4
10/19/2017  17:30:57.418089	1.459483E-1	3.363747E-3	3.714876E-3	9.475455E-3	1.423448E-3	8.145339E-3	3.043266E-3	4.667879E-3
10/19/2017  17:30:57.419089	5.249775E-1	4.326449E-3	1.670143E-3	1.725175E-3	1.217252E-2	1.018021E-2	4.617184E-3	1.023908E-3
10/19/2017  17:30:57.420089	3.528234E-1	3.844145E-3	3.320018E-3	2.453807E-3	2.074166E-3	1.821687E-3	3.474198E-3	5.992832E-3
10/19/2017  17:30:57.421089	4.033977E-1	7.425276E-3	3.529076E-5	1.236223E-2	9.617709E-3	6.131078E-3	3.971060E-3	3.324927E-6
10/19/2017  17:30:57.422089	6.805568E-1	1.119610E-3	4.498696E-3	1.174970E-2	4.593944E-3	3.731266E-4	4.822069E-3	2.154028E-3
10/19/2017  17:30:57.423089	9.288016E-1	2.907065E-3	7.554132E-3	2.152638E-3	7.205927E-3	3.746068E-3	8.664248E-4	1.438297E-2
10/19/2017  17:30:57.424089	7.571650E-1	1.897382E-3	7.217496E-3	3.403124E-3	2.142867E-3	2.147232E-3	9.061137E-5	5.584379E-3
10/19/2017  17:30:57.425089	8.841184E-1	1.090510E-3	1.501678E-2	4.524906E-3	8.870581E-3	2.284157E-3	9.152456E-3	1.330041E-2
10/19/2017  17:30:57.426089	7.604327E-1	7.526076E-3	4.470249E-3	1.413944E-3	2.564119E-3	3.325920E-3	1.842760E-3	5.327575E-3
10/19/2017  17:30:57.427089	1.188895E+0	3.178951E-3	5.477787E-3	1.286766E-3	2.040934E-3	1.360618E-3	3.287988E-3	1.361451E-2
10/19/2017  17:30:57.428089	6.085209E-1	2.280480E-3	5.814176E-4	1.397349E-2	3.445489E-3	1.049691E-2	4.686307E-3	3.603476E-3
10/19/2017  17:30:57.429089	6.539038E-1	6.135064E-3	7.100130E-3	5.165547E-4	7.987919E-4	1.324049E-3	9.996470E-4	7.582617E-4
10/19/2017  17:30:57.430089	1.223226E-1	4.310515E-3	7.155435E-3	1.142896E-2	7.555746E-3	7.483598E-3	1.411970E-3	5.175955E-3
10/19/2017  17:30:57.431089	6.685057E-1	1.378283E-2	1.043406E-2	1.307542E-2	5.609747E-3	1.245058E-2	1.247582E-3	1.656166E-3
10/19/2017  17:30:57.432089	7.641372E-1	4.811068E-3	7.519205E-3	5.017952E-3	9.032202E-3	3.970958E-3	3.122107E-3	1.202304E-3
10/19/2017  17:30:57.433089	1.271521E-1	1.491284E-2	5.743766E-3	1.103243E-3	6.172072E-3	2.660245E-3	6.494247E-3	7.822743E-3
10/19/2017  17:30:57.434089	9.088270E-1	2.602169E-3	6.416605E-3	1.826181E-3	7.026955E-3	3.739508E-3	4.334518E-3	3.163626E-3
10/19/2017  17:30:57.435089	6.720158E-1	4.450990E-3	2.031487E-3	4.065554E-4	1.191716E-2	2.158576E-3	5.476341E-3	8.999216E-3
10/19/2017  17:30:57.436089	5.246686E-1	5.602007E-3	1.551079E-3	6.252776E-3	4.585620E-3	6.337466E-3	1.727983E-3	4.408922E-3
10/19/2017  17:30:57.437089	3.033738E-1	2.457808E-3	1.136060E-3	5.027642E-3	3.295692E-3	6.909771E-3	1.070321E-3	8.894785E-4
10/19/2017  17:30:57.438089	2.979175E-1	1.677314E-3	7.812364E-4	4.275407E-3	2.105922E-3	5.121904E-4	3.058890E-3	6.027300E-3
10/19/2017  17:30:57.439089	1.639140E-1	1.034978E-3	4.815624E-4	4.434903E-3	5.965545E-4	1.993677E-3	4.998730E-5	2.205442E-3
10/19/2017  17:30:57.440089	4.202113E-1	3.801002E-3	6.246477E-3	6.275819E-3	1.804452E-3	5.766622E-4	4.811627E-5	1.548031E-3
10/19/2017  17:30:57.441089	6.974628E-1	3.681008E-3	2.155019E-3	3.413676E-3	5.215866E-3	6.684344E-3	2.211430E-3	7.462320E-3
10/19/2017  17:30:57.442089	3.140035E-1	4.579178E-3	8.114766E-3	9.279183E-3	7.823942E-4	2.228455E-3	5.829553E-3	3.769810E-3
10/19/2017  17:30:57.443089	1.413144E-1	1.011396E-2	9.369083E-4	5.089914E-3	1.421837E-3	1.076579E-2	6.949763E-3	7.414294E-3
10/19/2017  17:30:57.444089	8.001072E-1	8.106050E-4	5.279778E-3	2.450570E-3	5.716236E-3	8.118388E-4	7.211501E-3	1.089144E-3
10/19/2017  17:30:57.445089	5.801426E-1	3.781752E-3	6.020537E-3	8.979192E-4	8.424393E-3	6.932766E-3	5.757079E-4	7.823983E-3
10/19/2017  17:30:57.446089	4.753582E-1	6.924595E-3	2.369473E-3	3.294934E-3	9.949973E-3	1.966672E-3	8.582049E-3	3.066305E-3
								
10/19/2017  17:30:57.447089	7.297525E-1	6.252437E-3	2.479493E-3	4.887792E-3	6.798123E-3	4.015657E-3	2.457255E-3	2.706448E-3
10/19/2017  17:30:57.448089	5.635121E-1	3.576133E-4	2.800417E-3	5.810004E-3	5.653861E-3	7.503093E-3	8.124236E-3	8.947816E-3
10/19/2017  17:30:57.449089	2.458055E-1	1.744083E-3	2.172756E-3	1.861665E-3	1.851750E-3	1.109543E-3	1.008736E-3	2.265042E-3
10/19/2017  17:30:57.450089	1.206725E-1	3.174179E-3	5.297721E-4	5.431162E-3	8.037903E-3	2.942167E-3	2.058880E-3	1.128108E-2
10/19/2017  17:30:57.451089	6.678022E-1	2.725559E-4	1.873402E-3	6.151144E-3	1.858814E-3	4.516258E-3	2.071613E-3	5.409163E-3
10/19/2017  17:30:57.452089	1.247458E+0	2.761991E-3	5.679526E-3	7.760068E-5	1.683643E-3	5.426092E-3	6.350304E-3	4.262325E-3
10/19/2017  17:30:57.453089	3.921391E-1	6.600072E-3	4.938253E-4	1.967575E-2	6.588994E-4	4.940770E-3	5.931809E-3	7.574090E-3
10/19/2017  17:30:57.454089	2.582434E-1	2.578381E-3	9.261382E-3	3.889678E-3	2.292295E-3	2.924054E-3	6.341023E-4	5.508969E-3
10/19/2017  17:30:57.455089	2.391768E-1	4.632796E-4	2.122289E-3	7.802377E-3	5.321317E-3	1.862488E-4	3.253128E-3	2.577043E-3
10/19/2017  17:30:57.456089	2.429878E-2	3.808952E-3	1.022989E-2	1.685438E-3	8.418488E-3	2.683953E-4	7.096179E-3	3.643879E-4
10/19/2017  17:30:57.457089	4.689899E-1	4.507328E-3	1.697011E-3	2.748821E-3	1.600750E-3	6.799976E-3	1.210928E-2	3.993743E-3
10/19/2017  17:30:57.458089	1.592064E+0	4.213180E-4	1.240257E-2	7.197266E-3	1.247524E-3	4.707760E-3	4.252148E-3	8.187054E-3
10/19/2017  17:30:57.459089	5.564284E-1	1.125247E-2	2.047883E-3	5.430121E-3	3.216986E-3	9.998895E-3	3.568196E-3	3.647226E-3
10/19/2017  17:30:57.460089	6.784211E-1	2.271252E-4	2.101084E-2	4.715108E-3	1.916703E-3	2.882229E-3	9.019916E-3	1.954938E-3
10/19/2017  17:30:57.461089	9.122123E-1	1.276164E-2	5.209539E-3	9.626448E-3	3.002838E-3	8.853810E-3	1.698285E-3	3.751766E-3
10/19/2017  17:30:57.462089	1.041558E+0	4.768093E-3	1.312165E-2	2.891404E-4	5.074657E-3	1.257053E-2	5.879424E-3	3.761298E-3
10/19/2017  17:30:57.463089	9.257280E-1	1.509824E-2	5.292348E-3	1.180599E-2	2.068317E-3	9.132163E-3	6.815168E-3	2.522708E-3
10/19/2017  17:30:57.464089	3.561047E-1	8.937691E-3	7.071599E-3	8.801389E-3	6.628829E-3	7.136902E-3	5.729317E-3	2.814947E-3
10/19/2017  17:30:57.465089	3.434007E-1	2.397338E-2	4.852667E-3	6.724491E-3	4.788423E-3	1.090281E-3	3.669216E-3	2.224437E-3
10/19/2017  17:30:57.466089	6.953856E-1	3.103636E-3	5.629666E-3	2.475220E-3	1.069684E-2	3.295451E-3	2.360730E-3	3.857657E-3
10/19/2017  17:30:57.467089	8.524698E-1	5.261093E-3	8.621320E-3	5.034632E-3	1.666320E-2	2.355485E-3	8.820049E-3	3.789369E-3
10/19/2017  17:30:57.468089	5.521299E-1	8.788917E-3	2.586733E-3	5.900841E-3	3.626007E-3	1.342014E-4	4.481734E-3	1.658934E-3
10/19/2017  17:30:57.469089	2.974512E-1	6.636196E-3	6.240779E-3	6.239887E-3	8.084444E-4	2.418335E-3	5.301281E-3	5.295950E-3
10/19/2017  17:30:57.470089	7.610490E-2	4.583041E-4	4.367837E-3	4.645501E-3	5.277599E-3	6.630454E-3	1.291691E-3	2.889972E-3
10/19/2017  17:30:57.471089	8.519654E-2	2.440927E-3	7.484514E-3	1.516476E-3	1.984108E-2	6.613422E-3	3.848356E-3	1.081305E-2
10/19/2017  17:30:57.472089	1.155721E+0	5.881974E-3	3.600759E-3	1.391562E-3	6.325565E-3	1.155518E-2	3.383832E-3	7.749236E-3
10/19/2017  17:30:57.473089	5.513272E-1	4.914936E-3	4.975634E-3	5.590681E-3	1.631979E-2	5.395350E-4	1.930141E-3	9.999326E-3
10/19/2017  17:30:57.474089	2.026360E-2	8.204450E-3	1.438913E-3	6.745316E-3	3.348120E-3	7.101508E-3	1.407655E-3	1.042792E-2
10/19/2017  17:30:57.475089	6.939567E-1	2.721615E-3	5.484725E-3	4.147030E-3	6.131269E-3	1.428509E-3	8.108869E-3	7.389932E-3
10/19/2017  17:30:57.476089	1.501683E+0	6.123271E-3	5.976488E-4	1.625431E-2	6.817456E-3	7.492068E-3	6.115839E-3	5.966227E-3
10/19/2017  17:30:57.477089	1.163726E+0	6.861473E-3	9.297157E-3	8.745308E-3	9.354033E-3	6.880267E-4	4.233937E-3	1.917652E-3
10/19/2017  17:30:57.478089	4.633812E-1	8.299373E-4	2.135144E-3	1.993854E-2	8.487723E-5	8.611839E-3	5.026634E-3	3.153185E-3
10/19/2017  17:30:57.479089	1.612504E-1	5.679505E-3	3.796504E-3	5.304523E-3	9.079534E-3	1.604304E-4	9.747472E-3	2.625619E-3
								
10/19/2017  17:30:57.480089	1.344430E+0	2.886989E-3	4.939484E-4	3.808856E-3	4.312878E-3	6.447960E-3	1.130554E-2	6.716606E-3
10/19/2017  17:30:57.481089	1.196638E+0	2.496205E-3	1.921330E-3	6.086465E-3	7.253748E-3	4.467423E-3	7.558511E-3	7.517939E-4
10/19/2017  17:30:57.482089	4.598272E-2	2.140131E-3	1.424806E-3	8.608316E-3	1.818604E-3	7.845634E-3	1.433197E-3	5.718861E-3
10/19/2017  17:30:57.483089	8.829962E-1	3.974944E-3	7.485932E-3	5.128146E-3	8.319194E-3	3.458082E-3	5.157276E-3	5.022565E-3
10/19/2017  17:30:57.484089	1.219209E+0	7.290069E-3	3.625790E-3	4.026638E-3	1.831591E-3	2.026696E-3	5.491487E-3	3.921331E-3
10/19/2017  17:30:57.485089	5.087623E-1	3.615017E-3	2.844767E-3	1.244288E-3	7.239254E-3	5.894954E-3	4.330462E-3	5.674339E-3
10/19/2017  17:30:57.486089	7.887892E-1	6.998543E-3	2.156425E-3	1.520921E-3	4.321384E-4	2.387773E-3	3.331604E-3	4.960684E-3
10/19/2017  17:30:57.487089	2.041686E+0	8.161386E-3	2.990127E-3	8.557670E-4	2.028479E-4	8.253159E-3	2.479683E-3	3.771961E-3
10/19/2017  17:30:57.488089	3.945272E+0	1.438836E-2	8.725774E-3	1.045553E-2	2.858270E-3	9.499851E-3	6.869999E-3	4.898477E-3
10/19/2017  17:30:57.489089	2.421525E-1	7.736471E-3	2.680317E-3	5.159240E-3	4.677573E-3	4.585577E-3	1.835662E-3	1.014122E-3
10/19/2017  17:30:57.490089	3.528198E+0	8.264291E-3	3.198249E-6	1.404534E-2	7.959377E-3	8.153995E-4	5.891149E-3	1.217506E-3
10/19/2017  17:30:57.491089	2.081472E+0	3.378861E-4	2.630549E-4	3.480076E-3	5.193124E-3	8.446607E-3	4.238861E-3	3.743465E-3
10/19/2017  17:30:57.492089	3.664713E-1	2.183965E-3	1.693123E-3	1.116796E-5	5.780601E-3	6.111548E-3	5.784331E-3	7.175688E-3
10/19/2017  17:30:57.493089	7.609110E-1	9.248563E-4	2.990847E-3	3.588179E-4	7.055556E-3	1.804225E-4	6.267616E-3	1.009918E-2
10/19/2017  17:30:57.494089	1.138507E-1	7.461761E-3	1.583468E-3	1.360244E-2	9.980833E-3	6.887921E-3	2.323506E-3	1.126246E-2
10/19/2017  17:30:57.495089	5.652306E-1	5.356553E-3	1.718908E-3	1.171421E-2	2.028246E-3	7.096602E-3	6.274631E-3	3.592770E-3
10/19/2017  17:30:57.496089	8.677240E-1	5.060761E-3	1.055498E-2	1.399901E-2	2.027404E-4	3.889216E-3	1.944674E-3	1.636764E-2
10/19/2017  17:30:57.497089	2.441190E+0	3.718482E-3	8.113316E-4	2.111885E-2	9.049898E-3	3.010968E-3	3.018206E-3	5.432631E-3
10/19/2017  17:30:57.498089	1.001425E+0	3.888238E-3	3.061368E-4	6.716117E-4	1.098086E-2	9.292714E-5	6.492914E-3	3.784810E-3
10/19/2017  17:30:57.499089	1.032687E-1	7.021258E-3	2.072924E-3	2.072047E-2	1.147313E-3	2.309209E-3	2.246223E-3	6.231781E-3
10/19/2017  17:30:57.500089	5.136173E-1	2.895897E-4	9.728065E-3	1.827716E-3	5.555645E-3	6.995061E-3	7.414507E-3	1.056775E-2
10/19/2017  17:30:57.501089	2.029420E-1	2.460752E-3	4.823274E-3	7.559655E-3	4.191908E-3	6.887476E-3	1.057339E-3	3.754193E-3
10/19/2017  17:30:57.502089	5.277240E-1	8.691115E-3	5.437707E-3	3.180865E-3	1.284225E-3	8.656495E-3	3.683154E-3	3.146473E-3
10/19/2017  17:30:57.503089	9.835467E-1	6.325569E-3	3.967314E-3	1.302292E-4	9.474668E-3	6.536577E-3	1.033716E-2	2.597565E-3
10/19/2017  17:30:57.504089	8.823617E-1	2.152749E-3	5.900421E-3	3.678765E-4	4.072706E-3	8.235283E-3	3.788972E-3	2.104759E-3
10/19/2017  17:30:57.505089	6.075523E-1	6.019038E-3	2.403709E-4	7.022191E-3	6.572216E-3	3.372764E-3	1.292236E-3	8.140624E-3
10/19/2017  17:30:57.506089	1.412158E+0	1.049075E-4	6.840129E-3	6.933613E-4	1.401007E-2	8.952249E-3	8.076234E-3	1.309045E-3
10/19/2017  17:30:57.507089	1.108369E+0	4.519229E-3	1.663809E-3	2.571989E-3	7.177054E-4	1.701993E-4	6.463928E-4	1.543558E-3
10/19/2017  17:30:57.508089	9.228141E-1	3.173149E-3	1.202310E-2	5.359120E-4	4.792525E-3	1.838627E-3	1.724144E-3	7.566570E-4
10/19/2017  17:30:57.509089	8.218702E-1	6.357866E-3	9.182161E-3	3.703877E-3	9.988221E-4	3.282914E-3	7.449712E-3	4.502513E-3
10/19/2017  17:30:57.510089	7.691432E-1	1.110669E-2	1.842891E-3	2.090842E-3	1.046233E-2	8.285945E-3	5.704974E-3	4.786750E-3
10/19/2017  17:30:57.511089	1.141916E-1	8.092016E-3	7.504956E-3	4.048185E-3	9.338163E-4	5.366550E-3	6.285050E-3	6.091041E-3
10/19/2017  17:30:57.512089	1.240626E-1	9.569350E-3	3.933670E-3	5.301260E-3	1.657956E-3	1.712955E-2	8.382957E-5	2.920629E-3
								
10/19/2017  17:30:57.513089	1.020896E+0	1.321897E-2	7.732627E-3	5.104659E-4	8.635060E-4	1.118756E-3	6.863199E-3	2.715630E-3
10/19/2017  17:30:57.514089	5.083946E-1	1.070447E-2	1.231230E-2	6.831631E-3	1.703390E-3	5.636444E-3	3.647518E-3	1.111948E-2
10/19/2017  17:30:57.515089	3.586331E-1	1.237788E-2	6.555009E-3	6.732509E-3	3.487625E-3	8.684123E-3	6.710473E-3	3.720629E-3
10/19/2017  17:30:57.516089	6.422384E-1	2.093464E-3	1.741577E-3	1.097611E-2	2.886030E-4	2.447079E-3	2.226192E-3	6.835869E-3
10/19/2017  17:30:57.517089	1.387071E-1	5.962602E-3	1.148417E-3	6.981629E-3	8.522686E-3	4.560835E-4	4.300307E-3	8.413196E-5
10/19/2017  17:30:57.518089	1.133182E+0	4.470710E-3	3.664991E-3	6.364548E-3	9.338923E-3	1.775042E-3	7.799398E-3	2.687081E-3
10/19/2017  17:30:57.519089	5.575018E-1	7.457326E-3	1.666396E-3	5.939502E-4	1.465745E-4	7.513410E-3	5.122479E-3	1.109685E-2
10/19/2017  17:30:57.520089	5.945053E-1	2.760266E-3	1.056673E-3	7.525905E-4	6.485033E-3	5.229797E-3	5.544534E-3	3.725691E-3
10/19/2017  17:30:57.521089	8.706139E-1	5.118874E-3	2.976437E-3	8.496138E-4	4.190517E-3	5.308285E-3	9.184433E-4	6.884917E-3
10/19/2017  17:30:57.522089	3.364925E-1	1.844446E-4	6.576530E-3	1.169516E-2	3.041890E-3	6.196221E-3	3.049914E-3	6.286761E-3
10/19/2017  17:30:57.523089	8.355594E-1	3.654344E-4	2.346471E-3	1.670728E-3	4.235883E-3	4.388149E-3	1.155222E-2	6.869726E-3
10/19/2017  17:30:57.524089	1.239214E-1	2.946840E-3	3.484207E-3	9.988538E-3	2.717899E-3	6.980636E-4	6.472051E-3	3.824030E-3
10/19/2017  17:30:57.525089	1.943820E-1	4.708125E-3	1.101650E-2	2.831994E-3	5.026428E-3	6.348810E-3	3.953415E-3	2.726194E-3
10/19/2017  17:30:57.526089	4.731075E-1	3.623843E-3	5.861083E-3	2.447980E-3	3.912461E-3	3.682224E-4	6.966639E-3	8.982663E-3
10/19/2017  17:30:57.527089	2.517184E-1	5.225617E-4	4.606969E-3	3.974910E-3	7.806862E-4	8.254729E-3	1.991250E-3	2.811918E-4
10/19/2017  17:30:57.528089	2.888556E-2	1.739638E-3	5.465048E-3	5.548831E-4	5.833757E-3	3.219505E-3	1.053711E-2	3.821357E-3
10/19/2017  17:30:57.529089	5.859714E-1	3.291860E-3	7.981438E-3	4.120589E-3	4.831711E-3	1.137975E-2	5.420868E-3	6.394446E-3
10/19/2017  17:30:57.530089	3.253481E-1	8.567664E-3	1.220969E-2	1.322044E-3	7.977952E-3	5.955873E-3	7.174941E-3	4.860743E-3
10/19/2017  17:30:57.531089	1.504035E-1	7.487163E-3	8.941569E-3	8.433234E-4	1.210934E-3	1.119561E-2	5.156911E-3	5.084863E-3
10/19/2017  17:30:57.532089	3.177757E-1	1.442231E-2	1.845783E-3	4.382865E-4	5.777492E-4	3.614314E-3	5.157384E-3	9.559449E-4
10/19/2017  17:30:57.533089	2.051564E-1	6.832841E-4	3.385901E-3	2.261079E-3	1.292499E-2	8.505786E-3	5.866779E-3	3.346473E-3
10/19/2017  17:30:57.534089	1.066412E-1	2.935661E-3	4.874325E-3	5.203927E-3	4.756768E-3	1.741398E-3	3.918465E-3	6.693373E-3
10/19/2017  17:30:57.535089	3.523590E-3	8.776044E-3	9.374520E-3	1.036682E-2	1.002251E-2	1.185501E-2	8.508070E-3	5.006504E-3
10/19/2017  17:30:57.536089	1.422948E+0	1.798175E-3	4.053774E-3	1.519638E-3	3.581772E-3	2.654059E-3	4.166424E-3	9.387569E-3
10/19/2017  17:30:57.537089	2.019356E+0	1.160029E-3	2.185540E-3	7.873762E-3	1.935279E-3	4.373620E-3	3.443315E-3	6.357768E-3
10/19/2017  17:30:57.538089	3.182461E-1	9.723868E-3	1.096626E-2	1.292999E-3	9.321682E-3	3.267675E-3	2.268951E-3	1.342915E-2
10/19/2017  17:30:57.539089	9.810260E-1	1.836490E-3	4.767849E-3	7.837442E-3	1.115064E-2	2.320002E-3	5.189185E-3	1.187860E-3
10/19/2017  17:30:57.540089	6.402869E-1	5.003525E-3	5.047164E-3	7.551663E-3	1.457763E-2	9.275832E-3	3.878078E-3	7.679380E-3
10/19/2017  17:30:57.541089	4.450816E-1	5.341791E-3	1.516520E-3	9.644981E-3	9.626348E-3	2.088112E-3	8.020272E-3	7.455728E-4
10/19/2017  17:30:57.542089	5.086918E-1	1.199915E-3	1.271517E-2	4.448689E-3	1.465233E-3	3.207878E-3	5.408511E-3	1.078904E-2
10/19/2017  17:30:57.543089	9.654100E-1	5.931481E-3	5.111156E-3	5.800331E-3	6.923467E-4	4.738674E-3	5.402865E-3	8.168981E-4
10/19/2017  17:30:57.544089	1.625211E+0	2.654871E-3	2.762092E-3	2.104202E-3	6.429431E-3	8.456169E-4	1.083506E-2	6.987086E-3
10/19/2017  17:30:57.545089	4.167386E-1	4.094723E-3	6.154852E-3	1.195736E-3	4.752419E-4	6.987544E-3	5.149958E-3	4.627206E-3
								
10/19/2017  17:30:57.546089	1.157711E+0	7.919557E-5	1.328853E-2	8.183882E-3	4.838775E-3	2.805790E-4	1.310353E-3	5.949673E-3
10/19/2017  17:30:57.547089	1.285295E+0	7.196532E-3	7.527035E-4	1.025574E-2	8.901881E-4	6.751230E-3	5.851433E-3	9.003671E-3
10/19/2017  17:30:57.548089	4.146655E-1	7.838017E-3	6.188417E-3	3.870519E-3	2.812825E-3	2.887965E-3	4.278378E-3	8.640487E-3
10/19/2017  17:30:57.549089	9.110238E-2	3.641669E-3	2.024336E-3	1.390448E-2	2.646005E-4	1.292236E-2	1.375981E-3	3.683153E-3
10/19/2017  17:30:57.550089	1.937360E-1	1.712280E-3	5.660047E-3	1.052552E-3	1.848188E-3	4.229919E-3	1.071525E-3	4.393989E-3
10/19/2017  17:30:57.551089	4.482336E-1	3.132684E-3	6.637860E-4	3.632873E-4	5.384825E-3	3.493815E-3	6.082890E-4	1.002824E-2
10/19/2017  17:30:57.552089	2.989880E-1	4.300996E-3	9.561773E-3	1.831772E-4	3.861319E-3	5.783797E-3	1.934214E-3	6.622476E-4
10/19/2017  17:30:57.553089	6.481727E-2	5.883047E-3	4.767285E-3	4.923715E-3	1.040768E-2	2.966622E-3	8.012889E-3	3.283062E-4
10/19/2017  17:30:57.554089	7.814289E-1	2.186963E-3	1.185456E-2	1.655055E-3	5.056781E-3	1.135171E-2	5.549020E-3	2.126286E-3
10/19/2017  17:30:57.555089	1.160924E+0	2.714444E-3	3.818346E-3	1.397003E-3	1.204417E-2	3.673070E-4	1.333177E-3	4.822597E-4
10/19/2017  17:30:57.556089	8.763679E-1	1.780902E-3	1.083920E-2	9.791735E-3	6.514516E-3	1.093526E-2	1.809513E-3	4.459171E-3
10/19/2017  17:30:57.557089	4.498995E-1	7.638659E-3	3.662737E-3	2.403371E-3	8.603807E-3	5.738606E-3	6.193758E-3	5.916380E-4
10/19/2017  17:30:57.558089	7.311317E-1	5.456303E-3	3.816772E-3	5.236506E-3	3.625067E-4	1.105252E-2	2.623906E-3	2.284144E-3
10/19/2017  17:30:57.559089	5.288990E-1	7.165019E-3	6.851164E-3	4.062435E-3	4.637769E-3	1.432736E-3	5.440619E-5	3.817192E-6
10/19/2017  17:30:57.560089	1.315561E+0	5.134404E-3	2.116576E-3	5.581707E-3	3.326188E-3	5.219295E-3	2.341553E-3	3.748023E-3
10/19/2017  17:30:57.561089	6.195234E-1	1.385398E-2	6.367987E-3	7.254825E-4	6.757862E-3	3.117940E-3	6.117562E-3	2.434664E-3
10/19/2017  17:30:57.562089	1.973859E-1	5.309085E-3	7.011702E-3	5.278386E-3	4.583598E-3	3.936603E-3	4.221363E-3	9.010527E-3
10/19/2017  17:30:57.563089	1.990860E-1	3.282452E-3	5.798181E-3	2.926836E-4	1.020674E-2	1.588863E-4	6.011138E-3	9.069371E-3
10/19/2017  17:30:57.564089	2.574317E-1	9.360955E-3	1.793739E-3	6.535080E-3	9.355324E-4	2.621015E-3	6.670410E-3	7.796178E-5
10/19/2017  17:30:57.565089	1.143102E-1	6.849341E-3	3.350685E-3	8.279614E-3	1.011150E-2	8.868980E-3	3.810966E-4	4.389415E-3
10/19/2017  17:30:57.566089	3.304131E-1	6.866402E-3	4.382808E-4	8.919036E-4	4.053524E-3	2.193533E-3	2.006475E-3	1.357385E-3
10/19/2017  17:30:57.567089	9.775828E-1	3.738517E-5	6.967882E-3	1.005820E-3	5.374967E-3	2.710436E-3	1.225964E-2	1.138950E-3
10/19/2017  17:30:57.568089	5.824401E-1	1.142483E-2	5.422523E-4	5.391456E-3	5.429185E-3	4.679746E-3	4.691918E-3	9.491495E-4
10/19/2017  17:30:57.569089	7.815241E-1	1.931540E-3	1.975606E-3	1.836900E-3	1.083207E-2	1.150229E-3	1.457790E-2	2.943922E-3
10/19/2017  17:30:57.570089	1.790184E+0	4.972905E-3	4.915517E-3	3.514013E-3	5.245499E-3	1.149327E-2	2.693508E-3	1.072918E-2
10/19/2017  17:30:57.571089	7.340046E-2	5.372203E-3	1.180298E-3	6.252956E-3	3.608247E-3	1.058688E-3	6.385156E-3	7.186382E-3
10/19/2017  17:30:57.572089	6.255996E-1	3.271160E-3	3.079891E-3	8.684006E-3	2.071729E-3	7.957306E-3	1.112215E-4	4.390016E-3
10/19/2017  17:30:57.573089	9.898613E-1	1.155926E-2	2.683090E-3	7.271666E-3	6.077635E-3	3.976610E-3	4.196795E-3	8.276404E-3
10/19/2017  17:30:57.574089	3.421415E-1	4.071124E-3	2.443377E-3	9.814014E-3	8.676155E-3	9.559427E-4	6.033938E-3	8.580792E-3
10/19/2017  17:30:57.575089	1.407930E+0	3.673273E-3	1.516056E-2	4.705780E-3	1.453827E-3	5.230542E-3	6.680312E-3	2.195652E-4
10/19/2017  17:30:57.576089	5.001849E-1	6.931550E-3	1.284359E-4	1.002947E-2	2.612819E-3	4.879245E-3	8.260749E-3	6.555888E-3
10/19/2017  17:30:57.577089	1.675336E-1	4.629157E-3	6.837132E-3	7.671158E-4	7.568689E-3	3.179424E-3	1.369975E-3	2.137407E-3
10/19/2017  17:30:57.578089	2.249035E-1	1.597045E-3	1.591737E-3	1.607307E-3	1.640124E-3	2.366299E-3	1.231282E-2	3.993347E-3
								
10/19/2017  17:30:57.579089	2.641396E-1	8.212039E-3	7.585136E-3	7.552042E-3	1.676947E-3	1.245916E-2	4.342215E-3	2.986302E-3
10/19/2017  17:30:57.580089	8.658333E-2	1.832425E-3	7.313689E-4	1.508319E-3	4.816455E-3	2.471848E-3	5.296569E-4	2.106357E-3
10/19/2017  17:30:57.581089	8.468530E-2	6.808843E-4	1.291689E-2	1.016962E-2	5.588736E-4	1.748883E-2	2.284872E-3	8.131054E-4
10/19/2017  17:30:57.582089	3.751657E-1	6.176805E-3	3.748343E-3	1.319373E-3	4.395093E-4	3.775604E-3	6.407662E-3	7.548002E-4
10/19/2017  17:30:57.583089	4.804598E-1	2.130896E-3	6.018594E-3	3.044757E-3	1.203021E-2	1.708706E-2	2.635132E-3	5.029387E-3
10/19/2017  17:30:57.584089	5.103545E-1	3.717961E-3	4.511302E-3	1.972273E-3	1.764702E-3	3.256577E-3	1.963082E-3	2.893285E-3
10/19/2017  17:30:57.585089	1.949949E-1	1.776228E-3	3.258962E-3	5.397350E-3	1.393847E-3	2.583394E-3	7.713204E-4	8.444311E-3
10/19/2017  17:30:57.586089	6.627143E-1	9.961128E-3	4.367280E-5	1.834389E-3	1.012288E-2	8.882201E-3	2.710163E-3	7.419760E-3
10/19/2017  17:30:57.587089	5.131943E-1	6.220589E-3	4.444768E-3	7.829972E-3	5.127177E-3	2.247587E-3	4.650674E-3	5.600203E-3
10/19/2017  17:30:57.588089	3.511491E-1	6.835616E-3	7.474692E-3	9.684808E-4	3.064258E-3	4.783154E-3	5.418570E-3	8.893433E-3
10/19/2017  17:30:57.589089	5.185645E-1	8.128209E-3	3.668665E-3	6.214318E-3	2.058440E-4	3.136377E-3	5.090818E-3	5.935820E-3
10/19/2017  17:30:57.590089	6.778697E-1	9.177387E-4	5.077752E-3	8.312562E-3	4.663981E-3	4.700072E-3	1.662319E-3	7.325812E-3
10/19/2017  17:30:57.591089	8.680830E-1	3.108310E-3	2.763381E-3	3.247242E-3	3.132627E-3	1.520776E-3	3.446338E-3	7.970234E-3
10/19/2017  17:30:57.592089	5.809603E-1	8.889299E-3	4.687080E-3	1.492652E-3	2.240430E-3	9.970649E-3	6.213162E-3	8.103846E-3
10/19/2017  17:30:57.593089	6.372695E-1	2.461603E-3	5.273965E-3	2.630076E-3	4.784338E-3	1.681773E-3	4.242851E-3	7.280714E-3
10/19/2017  17:30:57.594089	2.337525E-1	8.372029E-3	1.396268E-3	1.185030E-2	1.231259E-3	5.705498E-3	1.718165E-3	7.231473E-3
10/19/2017  17:30:57.595089	6.466092E-1	3.595299E-3	3.643229E-3	1.096920E-2	3.387099E-3	6.196022E-3	3.812748E-3	1.800246E-3
10/19/2017  17:30:57.596089	8.902568E-1	6.525154E-3	4.964542E-3	7.460846E-3	6.984284E-3	6.698069E-3	5.174414E-3	1.905550E-2
10/19/2017  17:30:57.597089	3.636304E-1	2.756034E-3	5.108453E-3	9.649589E-4	3.712666E-3	4.891370E-3	5.926673E-3	2.540869E-3
10/19/2017  17:30:57.598089	4.591709E-2	2.091618E-3	3.485733E-3	3.753643E-3	6.907033E-3	3.350968E-3	8.922438E-3	3.041036E-3
10/19/2017  17:30:57.599089	6.059460E-1	7.109507E-3	2.301216E-5	2.209025E-2	2.019870E-4	1.051193E-4	4.109297E-3	6.973239E-3
10/19/2017  17:30:57.600089	1.147986E+0	4.385296E-4	6.896556E-3	3.535705E-4	2.521614E-3	9.107841E-3	6.036265E-3	7.359070E-3
10/19/2017  17:30:57.601089	2.944534E-1	4.419952E-3	9.383690E-3	5.814953E-3	8.741595E-3	2.245027E-3	2.024790E-3	1.331792E-3
10/19/2017  17:30:57.602089	1.377075E+0	3.426110E-3	6.554413E-3	7.432075E-3	2.024616E-3	4.956326E-3	1.255549E-3	5.379020E-3
10/19/2017  17:30:57.603089	1.298304E+0	6.881516E-3	1.679325E-3	8.342720E-3	1.424078E-3	1.272027E-3	2.787531E-3	5.928256E-4
10/19/2017  17:30:57.604089	7.402220E-1	4.078130E-4	1.182914E-2	3.047505E-5	1.206225E-2	1.009417E-2	3.738737E-3	1.594634E-3
10/19/2017  17:30:57.605089	1.039437E-1	4.300601E-3	9.532505E-3	5.642854E-4	3.892585E-3	4.864648E-3	2.260169E-3	7.715176E-3
10/19/2017  17:30:57.606089	5.356847E-1	3.198125E-3	2.936931E-3	1.198756E-3	2.169242E-2	3.003579E-3	1.083431E-2	1.118716E-3
10/19/2017  17:30:57.607089	2.030245E-1	2.052679E-3	4.072006E-3	1.948549E-3	6.676302E-3	7.158948E-3	7.895171E-3	1.017018E-2
10/19/2017  17:30:57.608089	2.497684E-1	3.575693E-3	4.064141E-3	2.005418E-3	4.489835E-3	3.077975E-3	1.075534E-3	7.031313E-3
10/19/2017  17:30:57.609089	8.158331E-1	6.648730E-3	1.135963E-3	1.730236E-4	3.725029E-3	6.998265E-3	1.773815E-3	8.593439E-5
10/19/2017  17:30:57.610089	5.775031E-1	6.594687E-3	9.802622E-3	4.776378E-3	8.812536E-4	1.827708E-2	5.224085E-4	9.299190E-3
10/19/2017  17:30:57.611089	6.388725E-1	2.234503E-2	1.679200E-3	9.141455E-3	9.644504E-3	4.688483E-3	2.212603E-3	4.882747E-3
								
10/19/2017  17:30:57.612089	6.548309E-1	4.054174E-3	7.721513E-3	7.209530E-3	6.114323E-3	1.638968E-3	4.502817E-3	1.495396E-3
10/19/2017  17:30:57.613089	3.822097E-1	5.667744E-3	1.247567E-3	1.436352E-2	6.357162E-3	5.837452E-4	6.027638E-3	5.465867E-3
10/19/2017  17:30:57.614089	4.145313E-1	6.611803E-3	5.509499E-3	5.879327E-3	2.446049E-3	2.109205E-3	1.717135E-3	7.049441E-3
10/19/2017  17:30:57.615089	5.529717E-1	4.846252E-3	6.172410E-3	5.920364E-3	2.104434E-3	1.262689E-3	5.778503E-3	4.954270E-3
10/19/2017  17:30:57.616089	2.179912E-1	1.185764E-3	4.187457E-3	7.746171E-3	3.413796E-3	3.692828E-3	4.476107E-3	1.113972E-3
10/19/2017  17:30:57.617089	9.730520E-1	3.685100E-3	1.796817E-3	6.543991E-3	5.709594E-3	3.166295E-3	3.350791E-3	1.408993E-2
10/19/2017  17:30:57.618089	2.604617E-1	7.040899E-3	1.039323E-2	1.666833E-2	1.015018E-3	4.838994E-3	4.085440E-3	9.672381E-4
10/19/2017  17:30:57.619089	4.712186E-1	3.821672E-3	5.333660E-3	1.681592E-3	3.707571E-3	2.791158E-3	4.934314E-3	1.396019E-2
10/19/2017  17:30:57.620089	5.107758E-1	5.003328E-3	5.757901E-3	4.902120E-4	7.692666E-3	1.662719E-3	7.648506E-3	3.254264E-3
10/19/2017  17:30:57.621089	7.878431E-1	1.300229E-3	9.350796E-3	2.342579E-3	5.910740E-3	5.729666E-3	3.426538E-3	1.542575E-2
10/19/2017  17:30:57.622089	4.999995E-1	5.764136E-3	4.707841E-3	8.634983E-3	1.084671E-2	1.080812E-2	4.093872E-3	6.585669E-3
10/19/2017  17:30:57.623089	2.450627E+0	1.275658E-2	5.333820E-3	1.200791E-2	8.815735E-4	5.476111E-3	6.973411E-4	2.284165E-3
10/19/2017  17:30:57.624089	1.447896E+0	6.565709E-3	6.359809E-4	9.098991E-3	2.253235E-3	6.186154E-3	1.782131E-3	4.304798E-3
10/19/2017  17:30:57.625089	7.984103E-1	9.426102E-3	1.567073E-3	6.356811E-3	3.432422E-3	5.578883E-5	1.327227E-3	7.765035E-3
10/19/2017  17:30:57.626089	2.441218E+0	2.428242E-3	7.725967E-3	2.060085E-3	5.533071E-3	2.364798E-4	3.088476E-3	8.731813E-4
10/19/2017  17:30:57.627089	6.168724E-1	4.896727E-3	3.259393E-3	7.637574E-3	5.664266E-3	2.520077E-3	4.434377E-3	7.047102E-3
10/19/2017  17:30:57.628089	1.413493E+0	1.324313E-3	6.613875E-3	3.485022E-3	4.903916E-3	6.206350E-3	3.190529E-3	3.963656E-3
10/19/2017  17:30:57.629089	3.805929E-1	5.625761E-3	6.962777E-3	3.277026E-4	2.040981E-3	2.078952E-3	2.166047E-3	5.263584E-3
10/19/2017  17:30:57.630089	1.413137E+0	6.905355E-3	8.228752E-3	2.342267E-3	4.380404E-3	5.345645E-3	3.766756E-3	1.651680E-3
10/19/2017  17:30:57.631089	1.629751E+0	3.809163E-3	6.448383E-4	6.605597E-4	2.083877E-3	1.263934E-2	2.576525E-3	3.187409E-3
10/19/2017  17:30:57.632089	2.296868E+0	7.030814E-3	3.780902E-3	1.497242E-3	6.717746E-3	3.849788E-5	1.574203E-3	6.424365E-3
10/19/2017  17:30:57.633089	1.617836E+0	3.689812E-4	2.453200E-3	3.533472E-3	1.149708E-3	1.122513E-2	2.899950E-3	2.069427E-3
10/19/2017  17:30:57.634089	1.720528E+0	8.803348E-3	7.289670E-3	3.775204E-3	1.227620E-2	5.875384E-3	4.959125E-3	1.026741E-2
10/19/2017  17:30:57.635089	1.150012E+0	8.072314E-5	3.198151E-3	2.347990E-3	6.754603E-3	1.338585E-2	2.508637E-3	4.898535E-3
10/19/2017  17:30:57.636089	1.437946E+0	6.484563E-3	6.588744E-3	9.983157E-4	6.766511E-3	5.067651E-3	5.220236E-3	1.002518E-2
10/19/2017  17:30:57.637089	1.163636E+0	2.044407E-3	7.118465E-5	9.021702E-4	2.252923E-3	1.179119E-3	1.954262E-3	3.072564E-3
10/19/2017  17:30:57.638089	3.515417E-1	1.633314E-3	8.977074E-3	1.727137E-2	4.261652E-3	5.657717E-3	2.618916E-3	2.070590E-3
10/19/2017  17:30:57.639089	3.872373E-1	5.202291E-3	2.136967E-3	9.295853E-3	6.475104E-3	8.643810E-3	5.024697E-3	3.518902E-3
10/19/2017  17:30:57.640089	3.022021E-1	3.390111E-3	1.424735E-3	2.254654E-3	3.315713E-3	1.752744E-3	2.625720E-3	8.563867E-3
10/19/2017  17:30:57.641089	4.574170E-1	4.584879E-3	1.212806E-2	6.170150E-3	6.886144E-4	9.942719E-4	9.266301E-3	3.920473E-3
10/19/2017  17:30:57.642089	4.343374E-1	5.837577E-3	4.592605E-3	4.391193E-3	1.468862E-3	1.798008E-3	6.327789E-3	3.712139E-4
10/19/2017  17:30:57.643089	4.872893E-1	6.488251E-3	7.804381E-3	3.589559E-3	1.503660E-2	8.085026E-3	6.111060E-6	8.018484E-5
10/19/2017  17:30:57.644089	5.261078E-1	1.732479E-4	1.116603E-3	4.870838E-3	1.119107E-2	6.891560E-4	8.870819E-3	8.192020E-3
								
10/19/2017  17:30:57.645089	6.134785E-1	6.565402E-3	5.932575E-3	1.252306E-3	1.419790E-3	9.126359E-3	6.214126E-3	1.003255E-2
10/19/2017  17:30:57.646089	7.724951E-1	3.980559E-3	6.527428E-3	3.580928E-3	1.379980E-3	1.801592E-3	2.501181E-3	1.411754E-2
10/19/2017  17:30:57.647089	7.375846E-1	1.568243E-3	2.094475E-3	1.469962E-2	1.197825E-3	7.925940E-3	2.243315E-3	5.166916E-3
10/19/2017  17:30:57.648089	4.662286E-1	1.187826E-3	8.231896E-3	9.568178E-3	3.290237E-3	3.815544E-3	4.159943E-3	1.557749E-3
10/19/2017  17:30:57.649089	1.880452E-1	3.449179E-3	2.840135E-3	5.042023E-3	2.011502E-3	6.995529E-4	7.541919E-3	1.113824E-3
10/19/2017  17:30:57.650089	9.384308E-1	4.456958E-3	4.428418E-3	1.564743E-3	3.116826E-3	8.042720E-3	3.168409E-3	7.305535E-3
10/19/2017  17:30:57.651089	2.484213E+0	8.004697E-3	5.126766E-3	7.492800E-3	4.944091E-3	3.149283E-3	2.296097E-3	4.935753E-3
10/19/2017  17:30:57.652089	7.995425E-1	5.842105E-3	5.437861E-3	1.462580E-3	1.923955E-3	1.136204E-2	6.140141E-3	7.834261E-3
10/19/2017  17:30:57.653089	3.038190E+0	1.109633E-2	4.190844E-3	7.867383E-3	4.033718E-3	6.212334E-3	6.480369E-3	8.074765E-3
10/19/2017  17:30:57.654089	2.786960E+0	1.190171E-3	3.362777E-3	1.212166E-2	1.089665E-3	1.084987E-2	4.482650E-3	1.408520E-3
10/19/2017  17:30:57.655089	2.343507E+0	8.189289E-3	6.484488E-3	4.854111E-3	4.699614E-3	5.779569E-3	6.585180E-4	7.786595E-3
10/19/2017  17:30:57.656089	5.602182E-2	8.110987E-3	3.261252E-4	3.950837E-3	1.459555E-2	1.322616E-2	4.317556E-3	3.257209E-3
10/19/2017  17:30:57.657089	2.260337E-1	1.391729E-2	6.289509E-3	3.161620E-3	6.202213E-3	1.429446E-3	9.887758E-3	2.335707E-3
10/19/2017  17:30:57.658089	7.597931E-1	1.077352E-3	2.199255E-3	1.843503E-3	4.476835E-3	3.288657E-3	1.661727E-3	4.510072E-3
10/19/2017  17:30:57.659089	2.600663E-1	1.055958E-3	1.745567E-3	5.335259E-3	3.335130E-3	6.632266E-3	9.921275E-3	8.069731E-3
10/19/2017  17:30:57.660089	1.071745E+0	1.013444E-3	7.823872E-3	5.401018E-3	2.374372E-3	6.551176E-3	3.049309E-4	1.673179E-3
10/19/2017  17:30:57.661089	5.657436E-1	9.587302E-3	3.187252E-3	1.724849E-2	4.914650E-3	1.113244E-2	1.971415E-3	3.002752E-3
10/19/2017  17:30:57.662089	7.785706E-2	2.047926E-4	2.497362E-3	3.099331E-3	3.053473E-3	8.291085E-3	7.740609E-3	4.063800E-3
10/19/2017  17:30:57.663089	8.353946E-2	4.429498E-3	4.359895E-3	6.840645E-3	2.172211E-3	4.920541E-3	1.008339E-2	1.859309E-3
10/19/2017  17:30:57.664089	2.283472E-1	1.107991E-3	1.212379E-3	2.754709E-3	7.231999E-4	1.254944E-3	2.658678E-3	8.227392E-3
10/19/2017  17:30:57.665089	1.468390E-1	8.337395E-4	1.089552E-3	3.189295E-4	1.142937E-2	2.861796E-3	7.171560E-3	5.967927E-3
10/19/2017  17:30:57.666089	1.145675E-1	6.036431E-4	5.170056E-4	3.681556E-4	9.541303E-3	6.928861E-3	3.171300E-3	1.886020E-3
10/19/2017  17:30:57.667089	1.661007E-1	3.903742E-3	2.103001E-3	4.717021E-3	6.057156E-3	5.040327E-3	1.645539E-4	1.413190E-2
10/19/2017  17:30:57.668089	1.757407E-1	1.674593E-3	3.914480E-3	1.010435E-3	2.489961E-3	3.037470E-3	1.995539E-3	1.288056E-3
10/19/2017  17:30:57.669089	1.161563E-2	1.312894E-3	7.207394E-3	1.383341E-3	2.253391E-3	2.062760E-3	7.757430E-3	1.019328E-2
10/19/2017  17:30:57.670089	1.413248E-2	7.477500E-3	1.566692E-3	2.072953E-2	5.289890E-3	8.510119E-4	3.593384E-3	2.879443E-3
10/19/2017  17:30:57.671089	5.654432E-2	2.929301E-3	3.522069E-3	5.377369E-3	1.854680E-3	7.698878E-4	8.626965E-4	1.550078E-2
10/19/2017  17:30:57.672089	1.923323E-1	5.127363E-4	4.788040E-3	1.319238E-2	7.967343E-3	9.326271E-3	1.099939E-3	2.192083E-3
10/19/2017  17:30:57.673089	7.312169E-2	1.164093E-2	5.481900E-3	9.601137E-3	1.179117E-3	1.085020E-2	6.213107E-3	2.414244E-3
10/19/2017  17:30:57.674089	7.579971E-1	6.181927E-3	9.407749E-3	7.294789E-5	8.115393E-3	5.453419E-3	1.034806E-2	5.198977E-3
10/19/2017  17:30:57.675089	3.808755E-1	6.690735E-3	1.887843E-3	6.834662E-3	7.955379E-3	3.033190E-3	1.736731E-4	1.828342E-3
10/19/2017  17:30:57.676089	6.208947E-1	2.725837E-3	7.339405E-3	3.595289E-3	5.529985E-3	1.747976E-3	3.557682E-3	3.640718E-3
10/19/2017  17:30:57.677089	6.519805E-1	1.910209E-3	7.149887E-3	2.048258E-3	4.196348E-3	3.564335E-3	9.355162E-3	2.613523E-3
								
10/19/2017  17:30:57.678089	1.417544E-1	3.389072E-3	1.064158E-2	1.727949E-3	3.052642E-3	5.104190E-3	1.182149E-2	4.253995E-4
10/19/2017  17:30:57.679089	4.845284E-2	8.668993E-3	7.889374E-3	3.602268E-3	8.572664E-3	4.794596E-3	6.608676E-3	4.779166E-3
10/19/2017  17:30:57.680089	4.976075E-2	4.006884E-3	3.087234E-3	1.032152E-2	8.625111E-4	5.205645E-3	1.776860E-3	3.393868E-3
10/19/2017  17:30:57.681089	7.124524E-2	1.714746E-3	1.085318E-2	3.918912E-3	9.855724E-4	9.536839E-3	3.443637E-3	8.552409E-3
10/19/2017  17:30:57.682089	2.306813E-1	1.148270E-2	5.675463E-3	9.715209E-3	8.603322E-3	9.445795E-3	1.970255E-3	1.640019E-3
10/19/2017  17:30:57.683089	3.459522E-1	5.497074E-3	4.395200E-3	9.137425E-3	6.482579E-3	2.060045E-2	5.761938E-3	1.287495E-3
10/19/2017  17:30:57.684089	2.902625E-1	6.204831E-3	7.608139E-3	3.955260E-3	1.861663E-3	3.593871E-4	3.877539E-3	9.442079E-4
10/19/2017  17:30:57.685089	5.031463E-1	9.471567E-3	3.394640E-3	1.455267E-5	5.936874E-3	3.518944E-4	1.269052E-4	1.048088E-2
10/19/2017  17:30:57.686089	5.743642E-1	1.175804E-2	3.814663E-4	9.421494E-3	1.565822E-2	1.798287E-3	1.665384E-3	5.291642E-3
10/19/2017  17:30:57.687089	2.062211E-1	2.096402E-3	6.844889E-3	3.628850E-3	6.798540E-3	1.069942E-3	1.248519E-2	5.179845E-3
10/19/2017  17:30:57.688089	2.063391E-1	6.452054E-4	1.777225E-3	4.464257E-3	8.591263E-3	4.525819E-4	2.738705E-3	6.023855E-3
10/19/2017  17:30:57.689089	7.948950E-2	6.033472E-3	1.439280E-3	4.995003E-3	1.523629E-4	8.571555E-3	6.214227E-5	8.507733E-3
10/19/2017  17:30:57.690089	5.071046E-1	1.906901E-3	7.616972E-3	5.748726E-3	4.249394E-3	7.635112E-3	1.068458E-2	5.242471E-3
10/19/2017  17:30:57.691089	1.902981E-1	5.511803E-3	9.543255E-3	4.621867E-3	3.852573E-3	1.039648E-2	8.096530E-3	4.155990E-3
10/19/2017  17:30:57.692089	2.925427E-2	8.479045E-3	8.995421E-3	1.226016E-2	7.758824E-3	5.473095E-3	8.354385E-3	7.528215E-3
10/19/2017  17:30:57.693089	4.390539E-1	2.716107E-3	6.866860E-3	8.539112E-3	1.599052E-3	2.632123E-3	3.860755E-3	3.337569E-3
10/19/2017  17:30:57.694089	8.516925E-1	8.496570E-3	2.881463E-3	3.237133E-3	4.003900E-3	1.869549E-3	2.598506E-3	1.101351E-2
10/19/2017  17:30:57.695089	8.238648E-1	2.862153E-3	4.438353E-3	2.028714E-2	9.937448E-3	5.252023E-3	4.925208E-3	1.258804E-3
10/19/2017  17:30:57.696089	1.527458E+0	6.626419E-3	8.618754E-4	7.221101E-3	7.291998E-3	6.509342E-4	7.976959E-3	1.008383E-2
10/19/2017  17:30:57.697089	1.536299E+0	4.140477E-4	3.928135E-3	9.408743E-3	7.936748E-3	5.915292E-3	3.146767E-3	1.269493E-3
10/19/2017  17:30:57.698089	1.564861E-2	1.918564E-3	7.273331E-4	8.930568E-3	7.725161E-3	4.757866E-3	6.715146E-3	5.062849E-3
10/19/2017  17:30:57.699089	1.275906E+0	3.505946E-3	5.487649E-4	8.806413E-3	1.011774E-2	5.770372E-3	6.816464E-3	3.225457E-3
10/19/2017  17:30:57.700089	6.431443E-1	4.471490E-3	1.256576E-2	4.642187E-3	3.049106E-3	4.076020E-3	6.401762E-3	2.600349E-3
10/19/2017  17:30:57.701089	7.290190E-1	1.548930E-3	2.348253E-3	1.006746E-3	2.186017E-3	3.828396E-3	8.074390E-3	2.398839E-3
10/19/2017  17:30:57.702089	2.540045E-1	8.013606E-3	1.734361E-2	5.768855E-3	3.699914E-3	1.152501E-2	5.649329E-3	4.332855E-3
10/19/2017  17:30:57.703089	3.642417E-1	7.102317E-3	3.592393E-3	2.594387E-3	6.780004E-3	2.900249E-3	1.942452E-3	1.225697E-3
10/19/2017  17:30:57.704089	1.054770E+0	4.685595E-3	2.123363E-3	4.198922E-3	6.485861E-3	1.534099E-2	1.354104E-3	1.094912E-3
10/19/2017  17:30:57.705089	9.077776E-1	6.997539E-3	1.249074E-3	3.009790E-3	6.218039E-4	1.998516E-3	5.868362E-3	7.685131E-3
10/19/2017  17:30:57.706089	3.964808E-1	4.688033E-3	8.001363E-3	2.312172E-3	9.366436E-3	1.853990E-2	8.879990E-3	2.848459E-3
10/19/2017  17:30:57.707089	5.681789E-2	2.160572E-2	1.742068E-3	4.334719E-4	7.767073E-5	4.206772E-3	4.166626E-3	1.159272E-2
10/19/2017  17:30:57.708089	3.598105E-1	4.764715E-3	5.818883E-3	4.096189E-3	1.535517E-4	5.298087E-3	5.512704E-4	1.499887E-2
10/19/2017  17:30:57.709089	6.151896E-1	1.397780E-2	4.461973E-3	6.868090E-4	3.459570E-4	7.997038E-3	6.435224E-3	4.864755E-3
10/19/2017  17:30:57.710089	3.067947E-1	8.162902E-3	1.304641E-3	6.132038E-3	4.829467E-3	9.068729E-4	4.728837E-3	1.037569E-2
								
10/19/2017  17:30:57.711089	1.307915E+0	6.549920E-3	5.409119E-3	1.076015E-2	7.859292E-3	2.183086E-3	1.181125E-2	1.205154E-3
10/19/2017  17:30:57.712089	4.071874E-1	5.148962E-3	5.954176E-3	8.041027E-3	9.796069E-3	3.536582E-3	1.575253E-3	8.344328E-4
10/19/2017  17:30:57.713089	3.229949E-2	4.691925E-3	2.592929E-3	8.291858E-3	1.340150E-2	7.554037E-3	5.922684E-3	5.047168E-4
10/19/2017  17:30:57.714089	6.689922E-1	1.427767E-3	4.345001E-3	1.622252E-3	1.980202E-3	6.535893E-4	3.100193E-4	2.152671E-4
10/19/2017  17:30:57.715089	5.316123E-1	5.815510E-3	1.111020E-3	3.215651E-3	1.520806E-2	3.154088E-5	3.707346E-3	4.281861E-3
10/19/2017  17:30:57.716089	5.274202E-1	6.582313E-3	3.415595E-3	6.608046E-3	1.883509E-3	6.920620E-3	4.405381E-3	5.981678E-3
10/19/2017  17:30:57.717089	6.270973E-1	4.680498E-3	4.340044E-3	1.728210E-3	5.428580E-3	1.330879E-3	6.974464E-4	1.971305E-3
10/19/2017  17:30:57.718089	1.006216E+0	7.714100E-3	4.508870E-4	1.412500E-2	9.585076E-4	5.740608E-3	6.456198E-3	1.096038E-3
10/19/2017  17:30:57.719089	2.390734E-1	9.713408E-4	4.578003E-3	2.918139E-3	7.723321E-3	6.239808E-3	7.013175E-3	1.689523E-2
10/19/2017  17:30:57.720089	5.379943E-1	7.058884E-4	5.870225E-3	2.264693E-2	7.940907E-3	2.021486E-4	9.973987E-3	3.295976E-3
10/19/2017  17:30:57.721089	8.676156E-1	4.800600E-4	1.302931E-2	9.897180E-4	3.400554E-3	7.044387E-3	7.354893E-3	1.724181E-3
10/19/2017  17:30:57.722089	2.142256E-1	8.923721E-3	8.351980E-3	1.474435E-3	5.587992E-5	3.054756E-3	1.214540E-2	1.235458E-3
10/19/2017  17:30:57.723089	1.535546E+0	5.932158E-3	1.043818E-2	1.012588E-3	4.746379E-3	6.385966E-5	2.578963E-4	3.330862E-3
10/19/2017  17:30:57.724089	8.053904E-1	5.189362E-3	1.502758E-3	6.192480E-4	1.447106E-3	4.235017E-3	1.135172E-2	3.818753E-4
10/19/2017  17:30:57.725089	8.457527E-1	1.949930E-2	7.897191E-3	1.051206E-2	7.464776E-3	2.792249E-3	2.766091E-3	4.721394E-3
10/19/2017  17:30:57.726089	1.268503E-3	8.605397E-4	5.665724E-3	2.919856E-3	5.211220E-4	5.764759E-4	2.272864E-3	3.170081E-3
10/19/2017  17:30:57.727089	2.057187E-1	3.995503E-3	1.615320E-3	7.032567E-3	6.261137E-3	3.025632E-3	5.767659E-3	4.398953E-3
10/19/2017  17:30:57.728089	3.304142E-1	8.592745E-4	1.416870E-3	1.173873E-2	9.439261E-3	6.853015E-3	2.817681E-3	7.581564E-4
10/19/2017  17:30:57.729089	2.765746E-1	5.054080E-3	7.898488E-3	3.769844E-3	9.560113E-3	7.950118E-3	6.769253E-3	6.233291E-3
10/19/2017  17:30:57.730089	7.014467E-1	1.000469E-2	5.749149E-3	6.513848E-3	2.746735E-3	5.529245E-3	5.027236E-3	6.670673E-3
10/19/2017  17:30:57.731089	2.072033E-1	4.187185E-3	3.851491E-4	5.027574E-3	2.045216E-3	1.069639E-2	1.399259E-3	4.499309E-3
10/19/2017  17:30:57.732089	1.353801E+0	1.857244E-2	4.799891E-3	3.753138E-3	7.216640E-3	5.502771E-3	7.748800E-3	5.233656E-4
10/19/2017  17:30:57.733089	7.111910E-1	2.147347E-3	3.444010E-3	9.151524E-3	2.732872E-3	2.501059E-3	5.333185E-3	2.657463E-4
10/19/2017  17:30:57.734089	4.139004E-1	1.269161E-2	4.181843E-3	2.524294E-3	9.299301E-3	2.651988E-3	3.169064E-3	9.519906E-3
10/19/2017  17:30:57.735089	1.973619E+0	1.872225E-3	1.306074E-3	6.530723E-3	2.399840E-3	6.703070E-3	5.666344E-4	6.808172E-4
10/19/2017  17:30:57.736089	4.695419E-1	1.490926E-3	3.447159E-3	9.133429E-3	1.028815E-2	1.611556E-4	5.186385E-3	3.531702E-3
10/19/2017  17:30:57.737089	2.037835E+0	9.786369E-3	2.334055E-4	1.319001E-2	4.023267E-3	6.748832E-3	1.836747E-3	4.213038E-3
10/19/2017  17:30:57.738089	1.322852E+0	1.978606E-3	4.257550E-3	2.741686E-3	9.876725E-3	6.423712E-4	7.992283E-3	1.064815E-2
10/19/2017  17:30:57.739089	4.486223E-1	1.763107E-3	7.293523E-3	4.933607E-3	2.853441E-3	2.698116E-3	9.519836E-3	1.468104E-3
10/19/2017  17:30:57.740089	3.318501E-1	3.717968E-3	1.681222E-3	8.096276E-3	2.326711E-3	6.739765E-3	4.426759E-3	1.206934E-2
10/19/2017  17:30:57.741089	2.181659E-1	7.134598E-3	1.242580E-2	9.996698E-3	8.106539E-3	2.424434E-3	1.026467E-2	2.458472E-3
10/19/2017  17:30:57.742089	3.387404E-1	6.310907E-4	1.660989E-4	8.581317E-3	5.374537E-3	7.297943E-3	3.130778E-3	1.019393E-4
10/19/2017  17:30:57.743089	4.274731E-1	6.258065E-3	6.524392E-3	2.172053E-3	3.391638E-3	9.664285E-3	2.158389E-3	6.735135E-3
								
10/19/2017  17:30:57.744089	9.860650E-1	6.621718E-3	8.884941E-3	6.128314E-3	7.452363E-3	2.271770E-3	7.291947E-3	1.137727E-2
10/19/2017  17:30:57.745089	7.694671E-1	2.242261E-3	4.971857E-3	6.665484E-5	1.426910E-3	5.359193E-3	7.804784E-3	3.080718E-3
10/19/2017  17:30:57.746089	1.134020E-1	3.213242E-3	8.994194E-3	1.853225E-5	1.380194E-3	1.444236E-4	5.431418E-3	2.584248E-3
10/19/2017  17:30:57.747089	1.093989E+0	1.135089E-2	5.171866E-3	6.499244E-3	3.470785E-3	2.407111E-3	3.733518E-4	6.442086E-3
10/19/2017  17:30:57.748089	4.451640E-1	8.064231E-3	1.519587E-2	2.080283E-3	1.660570E-3	8.478161E-3	6.684113E-3	2.445257E-3
10/19/2017  17:30:57.749089	4.548768E-1	3.339740E-3	6.617373E-3	6.024085E-3	5.268730E-3	4.804458E-3	8.737600E-3	5.679686E-4
10/19/2017  17:30:57.750089	8.541342E-1	1.791798E-2	4.210560E-3	8.592203E-3	1.055222E-3	5.516337E-3	1.034667E-3	7.057336E-3
10/19/2017  17:30:57.751089	1.541984E+0	4.678577E-4	5.370326E-3	7.816250E-4	7.758490E-3	3.598373E-3	5.946570E-3	7.101844E-3
10/19/2017  17:30:57.752089	1.189409E+0	2.928994E-3	6.981499E-3	1.099860E-3	1.440819E-2	2.304523E-3	9.279517E-3	1.047728E-2
10/19/2017  17:30:57.753089	2.623885E-1	2.819450E-4	1.745120E-3	1.060658E-2	5.298807E-3	8.651171E-3	3.811772E-3	7.552883E-3
10/19/2017  17:30:57.754089	7.766953E-1	2.706643E-3	2.815269E-3	8.635318E-4	1.064461E-2	4.423773E-3	2.245723E-3	2.912282E-3
10/19/2017  17:30:57.755089	3.463148E-1	2.126474E-3	4.868022E-3	1.252980E-2	5.444584E-3	3.647016E-3	3.342196E-3	9.251383E-3
10/19/2017  17:30:57.756089	1.114384E+0	5.303831E-3	2.744754E-3	2.181234E-3	1.619447E-3	6.700084E-4	5.095183E-3	3.594290E-4
10/19/2017  17:30:57.757089	1.433586E+0	4.685679E-3	7.051270E-3	2.485095E-4	1.238484E-3	2.817770E-3	3.989192E-3	1.717538E-3
10/19/2017  17:30:57.758089	1.344670E+0	7.775885E-3	8.480096E-4	2.372190E-3	1.107836E-3	1.070665E-2	3.013333E-3	7.422638E-3
10/19/2017  17:30:57.759089	1.316419E+0	1.855413E-2	1.488428E-3	4.455344E-3	9.645916E-3	1.408451E-3	4.313093E-3	1.811770E-3
10/19/2017  17:30:57.760089	7.277277E-2	1.128499E-2	5.251192E-3	4.804160E-3	2.105219E-4	3.647799E-3	7.700647E-4	8.441394E-3
10/19/2017  17:30:57.761089	4.636976E-1	8.579315E-3	9.452781E-4	1.035054E-2	2.046372E-3	5.141806E-3	6.130558E-3	8.554042E-3
10/19/2017  17:30:57.762089	1.868141E-1	6.269542E-3	7.559119E-3	1.003920E-2	1.075043E-3	2.620769E-3	1.570324E-5	1.774657E-3
10/19/2017  17:30:57.763089	1.637681E-1	2.156333E-3	7.673362E-3	2.884342E-3	2.060649E-2	2.731658E-3	1.002031E-4	5.430581E-3
10/19/2017  17:30:57.764089	1.370396E+0	3.815732E-3	1.249710E-3	8.897877E-3	3.408374E-3	2.145587E-3	6.263954E-3	9.487827E-3
10/19/2017  17:30:57.765089	1.258404E+0	2.673009E-3	7.646483E-3	4.623606E-3	9.207607E-3	1.212289E-3	1.106340E-2	1.765982E-2
10/19/2017  17:30:57.766089	2.548129E-1	4.493747E-4	1.114689E-3	1.187492E-3	9.281928E-3	4.469634E-4	3.648198E-3	7.519939E-3
10/19/2017  17:30:57.767089	7.570441E-1	4.859459E-3	3.645919E-3	2.968867E-3	2.853097E-4	1.096019E-2	1.852019E-3	3.775162E-3
10/19/2017  17:30:57.768089	3.233452E-1	2.967151E-3	2.588189E-3	8.866724E-3	1.867487E-3	3.580576E-3	1.003997E-2	3.099071E-3
10/19/2017  17:30:57.769089	7.106840E-1	4.494817E-3	1.695230E-3	4.612286E-3	5.481438E-3	4.066130E-3	6.814315E-3	4.648846E-3
10/19/2017  17:30:57.770089	8.840359E-1	3.283202E-3	5.270528E-3	1.410425E-2	3.473666E-3	1.371229E-2	2.361924E-3	3.079438E-3
10/19/2017  17:30:57.771089	2.449792E-1	1.088611E-2	1.075831E-3	9.994331E-3	1.332827E-2	5.719737E-4	2.468394E-3	4.185425E-3
10/19/2017  17:30:57.772089	5.701818E-2	7.918885E-3	9.965836E-3	5.336896E-3	5.371842E-3	4.658937E-3	3.966716E-3	1.033498E-2
10/19/2017  17:30:57.773089	1.242741E-1	1.466256E-2	7.298993E-3	1.760838E-3	6.121804E-4	8.265924E-3	6.766748E-3	8.893536E-4
10/19/2017  17:30:57.774089	1.679505E+0	5.860109E-4	1.443558E-3	3.047682E-3	2.749620E-3	8.352595E-3	5.630653E-3	4.996661E-4
10/19/2017  17:30:57.775089	6.438894E-1	3.534980E-3	2.065110E-2	6.359360E-3	1.499951E-4	5.864146E-3	4.607030E-3	1.672395E-4
10/19/2017  17:30:57.776089	1.287753E-1	2.339852E-3	1.111358E-3	8.861331E-3	5.675940E-5	5.555594E-4	4.940447E-3	1.119629E-4
								
10/19/2017  17:30:57.777089	4.967171E-1	8.670897E-3	1.740199E-2	2.158411E-3	6.515211E-3	1.384217E-2	3.548917E-3	2.500429E-3
10/19/2017  17:30:57.778089	6.241239E-1	1.070045E-2	4.059303E-3	3.717881E-3	2.036360E-3	3.372135E-3	5.218835E-3	8.452073E-3
10/19/2017  17:30:57.779089	1.454333E+0	3.452725E-3	7.220744E-3	1.820188E-3	8.111401E-3	8.647602E-3	6.198809E-3	9.229034E-3
10/19/2017  17:30:57.780089	1.074280E+0	9.197782E-3	4.969912E-4	2.902404E-3	8.794484E-4	6.109832E-3	1.383398E-4	8.574342E-3
10/19/2017  17:30:57.781089	6.368598E-1	4.351450E-3	2.063098E-3	1.830803E-3	1.315024E-3	1.114218E-2	5.992494E-5	5.501096E-3
10/19/2017  17:30:57.782089	1.685076E-1	1.391235E-2	1.280853E-3	1.633536E-2	2.804363E-3	6.677516E-4	2.183605E-3	1.215707E-2
10/19/2017  17:30:57.783089	2.418931E-1	3.620246E-3	5.851150E-3	1.580284E-3	4.947492E-3	1.656385E-3	1.564881E-3	4.957829E-3
10/19/2017  17:30:57.784089	7.005251E-3	7.606946E-3	2.443096E-3	6.803815E-4	1.684845E-3	1.095977E-3	5.407819E-3	4.732343E-3
10/19/2017  17:30:57.785089	2.056179E-1	1.063154E-2	4.409181E-3	2.241873E-3	3.610762E-3	7.996961E-3	6.362178E-4	6.608153E-4
10/19/2017  17:30:57.786089	5.991472E-1	6.073754E-3	6.015300E-3	5.420337E-3	2.681950E-3	9.439921E-4	3.632070E-3	6.669098E-3
10/19/2017  17:30:57.787089	2.859000E-1	3.877133E-4	2.482197E-3	1.072508E-2	2.730705E-4	3.428443E-3	1.605226E-5	3.045762E-3
10/19/2017  17:30:57.788089	2.908194E-1	6.121133E-4	2.316577E-3	5.413524E-3	1.934024E-3	4.407448E-3	2.648067E-3	1.841926E-3
10/19/2017  17:30:57.789089	5.675955E-1	5.079285E-3	7.806089E-3	7.333618E-3	7.393105E-3	5.562200E-3	1.971091E-3	3.374347E-3
10/19/2017  17:30:57.790089	1.156962E-1	5.672015E-4	8.077948E-3	1.084541E-3	1.379041E-3	6.801028E-3	5.640520E-3	9.146303E-3
10/19/2017  17:30:57.791089	4.243296E-2	8.337960E-3	6.227401E-3	7.769823E-3	7.646858E-3	8.898509E-3	8.756537E-3	6.559645E-3
10/19/2017  17:30:57.792089	6.309638E-1	2.925735E-3	8.939977E-3	3.524073E-3	5.313492E-3	7.319313E-3	6.305209E-3	1.694745E-2
10/19/2017  17:30:57.793089	5.022085E-1	4.463640E-3	3.381100E-4	1.654727E-2	5.298007E-3	1.223997E-2	4.240357E-3	6.678383E-4
10/19/2017  17:30:57.794089	7.316880E-1	7.560399E-3	9.205298E-3	1.519874E-2	1.056564E-2	2.284315E-3	8.264065E-3	6.856054E-3
10/19/2017  17:30:57.795089	1.315287E+0	5.044978E-3	2.233692E-3	2.663390E-2	8.922533E-4	2.846800E-3	6.126785E-3	9.880240E-3
10/19/2017  17:30:57.796089	2.350458E-1	3.535568E-3	5.750811E-3	3.389714E-3	6.137622E-3	2.110548E-3	2.168926E-3	8.585236E-4
10/19/2017  17:30:57.797089	1.194918E+0	9.862869E-4	1.143440E-2	2.779501E-3	2.276671E-3	1.491136E-3	1.021101E-2	7.300001E-3
10/19/2017  17:30:57.798089	2.071693E+0	1.326579E-3	1.690646E-3	1.365952E-2	6.115154E-4	3.340201E-3	3.902224E-3	1.340970E-3
10/19/2017  17:30:57.799089	8.141869E-1	5.887441E-3	3.211693E-3	1.476735E-3	1.656351E-3	1.848736E-4	5.283716E-3	1.128079E-3
10/19/2017  17:30:57.800089	1.018356E+0	2.471617E-3	1.060042E-2	8.600125E-4	1.125085E-3	5.032322E-5	1.732004E-3	6.897810E-4
10/19/2017  17:30:57.801089	7.346740E-1	2.230194E-3	4.073698E-3	6.802411E-3	1.238695E-3	8.697302E-3	9.082026E-4	3.325248E-4
10/19/2017  17:30:57.802089	1.295101E-1	5.308778E-3	1.022053E-2	7.131295E-5	2.870041E-3	1.131092E-2	2.773011E-3	2.205567E-3
10/19/2017  17:30:57.803089	4.008310E-1	4.040661E-3	8.796301E-4	7.232142E-3	8.216431E-3	1.450419E-3	1.828321E-3	7.358926E-3
10/19/2017  17:30:57.804089	3.822047E-1	5.103408E-3	6.328742E-3	1.209648E-2	1.216068E-2	5.745608E-3	1.189406E-2	5.281478E-3
10/19/2017  17:30:57.805089	4.937433E-1	1.380961E-2	6.940073E-3	1.072173E-2	1.116977E-2	4.209386E-3	1.799102E-3	7.929972E-4
10/19/2017  17:30:57.806089	5.008968E-1	8.905466E-4	2.745125E-3	1.241467E-2	1.281048E-3	5.069940E-3	8.810097E-4	1.163557E-2
10/19/2017  17:30:57.807089	4.518737E-1	1.498777E-4	6.899058E-3	1.343203E-2	8.097365E-3	3.278529E-3	1.065710E-2	2.673714E-3
10/19/2017  17:30:57.808089	6.523566E-1	4.743166E-3	4.898517E-3	5.896984E-3	1.519362E-3	6.835099E-3	7.715029E-3	6.393328E-3
10/19/2017  17:30:57.809089	8.711397E-1	5.916501E-3	1.100001E-3	1.092130E-2	7.535006E-3	1.167676E-2	1.241586E-3	2.298893E-3
								
10/19/2017  17:30:57.810089	6.891070E-1	1.791374E-5	9.710184E-3	1.059281E-3	7.969459E-3	4.907640E-4	3.344343E-3	7.773429E-4
10/19/2017  17:30:57.811089	3.697824E-1	7.710654E-5	3.973514E-3	1.813806E-3	1.878213E-2	6.269234E-4	1.119544E-2	1.333135E-3
10/19/2017  17:30:57.812089	5.544572E-1	4.212178E-3	7.177338E-3	1.684276E-3	2.465626E-3	9.362621E-3	1.216522E-3	8.030919E-3
10/19/2017  17:30:57.813089	1.378679E+0	4.951584E-3	1.653812E-3	6.066122E-4	6.913185E-3	4.440541E-3	3.908085E-3	1.010255E-2
10/19/2017  17:30:57.814089	1.593153E+0	5.552189E-3	3.639409E-3	1.077203E-2	7.698866E-3	5.801523E-3	3.140895E-3	4.003575E-3
10/19/2017  17:30:57.815089	1.984219E-1	6.399605E-3	1.565114E-3	3.114330E-3	5.782121E-3	6.449954E-3	8.940958E-3	1.617299E-2
10/19/2017  17:30:57.816089	3.167852E-1	6.704794E-3	3.073221E-3	1.944733E-2	1.978767E-3	1.350933E-4	2.422833E-4	6.919686E-3
10/19/2017  17:30:57.817089	8.021690E-1	4.416589E-3	6.797641E-3	8.621901E-3	8.621750E-4	1.256418E-4	4.707468E-3	8.749662E-3
10/19/2017  17:30:57.818089	1.524563E+0	3.389012E-4	7.122781E-3	9.071053E-3	7.210362E-3	3.982748E-3	9.115501E-4	2.415466E-3
10/19/2017  17:30:57.819089	1.392435E+0	1.348768E-2	3.789571E-3	1.334040E-2	3.697419E-3	8.388693E-3	3.720714E-3	4.251612E-3
10/19/2017  17:30:57.820089	3.931047E-1	5.613020E-3	7.182979E-3	4.993802E-3	4.899186E-3	8.304152E-3	2.568826E-3	1.079193E-3
10/19/2017  17:30:57.821089	1.396111E+0	8.929974E-3	7.972707E-3	8.665644E-4	9.856932E-3	5.097275E-3	2.708315E-3	1.247965E-3
10/19/2017  17:30:57.822089	2.118495E+0	1.696977E-3	1.231078E-3	8.690192E-3	6.542322E-3	3.734517E-3	4.240383E-3	7.176375E-3
10/19/2017  17:30:57.823089	2.158240E+0	6.781721E-4	1.550704E-3	1.090198E-2	9.447028E-3	3.896591E-3	3.481999E-3	4.613919E-3
10/19/2017  17:30:57.824089	2.696945E-1	2.302853E-3	2.964133E-3	3.117850E-3	8.960637E-3	5.800256E-4	4.568556E-3	8.287906E-3
10/19/2017  17:30:57.825089	1.675538E+0	2.241554E-3	1.722026E-3	6.594991E-3	9.130405E-3	6.792356E-3	1.347464E-3	1.076685E-2
10/19/2017  17:30:57.826089	6.056097E-1	2.173580E-3	3.619903E-3	1.408656E-4	2.042642E-3	2.022862E-3	1.252930E-3	1.270098E-3
10/19/2017  17:30:57.827089	5.346522E-1	3.431548E-3	7.346939E-3	6.258679E-3	3.495198E-3	3.995757E-3	5.461039E-3	3.488879E-3
10/19/2017  17:30:57.828089	2.118361E-1	7.750384E-3	5.398439E-3	4.709881E-4	1.294747E-2	5.257368E-3	4.701862E-3	6.773621E-3
10/19/2017  17:30:57.829089	8.482041E-1	1.883121E-3	5.743819E-4	1.183564E-2	1.773820E-3	1.565590E-2	1.145326E-3	1.906020E-4
10/19/2017  17:30:57.830089	5.347437E-1	1.741983E-4	7.021901E-3	2.091569E-3	1.231697E-2	6.730617E-3	1.160606E-3	4.575672E-3
10/19/2017  17:30:57.831089	2.820361E-1	9.801710E-3	2.701162E-3	3.114492E-3	1.345656E-4	7.478356E-3	5.995810E-4	3.488799E-3
10/19/2017  17:30:57.832089	8.361727E-1	5.247548E-3	3.762062E-3	1.918863E-2	9.124046E-3	3.099146E-3	1.537813E-4	1.117052E-2
10/19/2017  17:30:57.833089	3.704739E-1	7.946383E-3	4.324208E-3	4.568775E-3	4.391713E-5	6.707298E-3	2.348270E-3	5.352000E-3
10/19/2017  17:30:57.834089	3.433238E-2	6.327650E-3	5.667349E-3	1.506707E-2	6.478373E-3	2.669497E-3	1.052642E-2	1.324321E-3
10/19/2017  17:30:57.835089	6.450723E-1	4.879726E-3	8.626498E-5	4.696415E-3	2.191590E-3	1.041421E-2	1.347056E-3	1.048338E-2
10/19/2017  17:30:57.836089	1.005285E-1	5.753399E-3	2.260372E-3	3.496403E-3	8.941808E-3	1.805728E-3	7.714283E-3	8.036435E-3
10/19/2017  17:30:57.837089	8.979272E-1	1.757000E-3	2.631610E-3	8.934377E-3	2.976957E-3	6.274222E-3	3.333978E-3	2.691933E-3
10/19/2017  17:30:57.838089	3.297213E-1	9.526594E-3	4.476034E-4	1.137003E-2	2.833377E-3	2.783868E-3	8.606279E-3	3.791066E-3
10/19/2017  17:30:57.839089	1.524363E-1	1.638091E-3	4.903997E-4	4.731648E-3	1.670425E-3	6.657305E-3	3.852934E-3	4.367384E-3
10/19/2017  17:30:57.840089	4.067436E-1	6.399142E-3	4.821681E-3	9.527975E-4	4.523652E-4	5.248777E-4	2.167816E-4	4.520872E-3
10/19/2017  17:30:57.841089	7.281598E-1	5.536475E-3	3.391008E-3	1.758263E-2	4.836046E-3	1.752338E-3	1.855987E-3	1.076874E-2
10/19/2017  17:30:57.842089	9.676012E-2	2.601966E-3	8.620031E-3	5.740176E-4	1.064090E-2	3.305432E-3	1.005000E-2	6.705872E-3
								
10/19/2017  17:30:57.843089	1.108552E+0	3.861497E-3	3.877831E-4	1.183404E-2	5.700164E-3	4.379575E-3	1.172627E-2	1.644422E-3
10/19/2017  17:30:57.844089	3.830583E-1	6.863392E-3	6.854848E-3	9.540600E-3	4.031686E-3	5.409360E-3	5.592910E-4	4.320540E-3
10/19/2017  17:30:57.845089	8.624604E-1	5.724736E-3	2.541076E-3	5.366043E-3	2.608610E-3	1.578988E-3	1.588512E-2	4.183776E-3
10/19/2017  17:30:57.846089	1.270465E-1	3.927215E-3	1.439630E-3	4.318381E-3	5.080580E-3	9.907806E-3	2.454333E-3	1.475337E-2
10/19/2017  17:30:57.847089	4.157503E-1	6.634040E-3	3.788264E-3	1.229056E-3	1.780271E-3	4.776498E-3	9.527385E-3	8.761389E-3
10/19/2017  17:30:57.848089	8.522675E-1	1.040548E-3	1.390340E-2	1.119764E-3	5.852362E-3	7.798454E-3	3.831932E-3	4.019166E-3
10/19/2017  17:30:57.849089	3.891920E-1	2.991345E-3	1.039464E-3	1.165035E-3	2.048380E-3	5.070132E-3	4.003751E-3	1.795508E-3
10/19/2017  17:30:57.850089	4.359548E-1	2.925015E-3	9.713732E-4	1.236949E-2	2.940419E-3	1.134125E-3	1.310445E-3	5.965747E-3
10/19/2017  17:30:57.851089	3.986826E-1	6.241488E-4	9.532288E-3	4.243160E-3	1.036593E-4	1.782407E-3	5.065027E-3	2.045000E-3
10/19/2017  17:30:57.852089	1.018788E+0	9.773489E-3	4.453446E-3	1.050268E-2	2.307179E-3	8.147777E-3	5.352229E-3	9.828845E-3
10/19/2017  17:30:57.853089	3.809762E-1	7.811090E-3	1.024345E-2	7.724927E-3	5.273368E-4	7.061271E-3	1.199751E-2	1.952983E-3
10/19/2017  17:30:57.854089	6.436079E-2	5.803891E-3	7.423274E-3	3.258810E-3	9.025615E-3	6.886895E-3	4.555476E-3	1.470719E-2
10/19/2017  17:30:57.855089	4.917672E-1	2.492407E-4	3.597884E-3	1.965494E-2	4.466459E-4	8.702626E-3	1.010540E-3	2.367626E-3
10/19/2017  17:30:57.856089	1.223989E-1	7.035860E-3	5.904749E-4	6.220370E-3	8.062797E-4	2.293460E-3	6.637466E-4	8.732552E-3
10/19/2017  17:30:57.857089	5.290843E-1	7.941511E-4	7.049435E-3	1.600969E-2	3.247795E-3	4.572601E-3	4.703635E-3	3.170392E-3
10/19/2017  17:30:57.858089	2.294198E-1	7.024239E-3	5.904312E-3	7.622737E-4	2.695958E-3	6.545780E-4	7.713715E-3	1.274292E-3
10/19/2017  17:30:57.859089	7.905977E-2	3.427074E-4	2.007722E-3	5.567434E-4	1.740505E-3	4.383667E-3	7.668180E-3	2.141591E-3
10/19/2017  17:30:57.860089	1.568747E-1	4.555356E-3	7.379737E-3	3.934271E-3	6.026407E-3	1.214792E-2	5.090104E-3	2.686375E-4
10/19/2017  17:30:57.861089	4.532205E-1	2.852706E-3	5.160758E-3	2.656054E-3	2.005117E-2	2.054569E-3	1.001168E-2	1.409804E-2
10/19/2017  17:30:57.862089	9.434418E-1	6.454601E-4	7.499761E-3	3.748311E-3	5.391352E-3	3.196550E-3	5.379589E-3	4.601829E-3
10/19/2017  17:30:57.863089	2.251298E+0	1.051118E-3	9.821818E-4	2.159136E-3	1.859664E-3	4.038151E-4	3.327729E-4	9.187538E-3
10/19/2017  17:30:57.864089	5.678929E-1	1.370161E-3	5.924549E-3	6.359439E-3	1.416521E-3	3.739938E-3	9.788821E-5	1.173904E-2
10/19/2017  17:30:57.865089	1.399677E+0	3.768718E-3	1.986318E-3	3.840242E-3	5.442890E-3	2.180613E-3	6.567004E-3	9.056822E-3
10/19/2017  17:30:57.866089	8.295943E-1	3.245998E-3	9.596566E-3	1.098216E-2	3.614704E-3	7.745914E-3	1.877271E-3	1.910044E-3
10/19/2017  17:30:57.867089	2.963426E-1	5.533952E-4	4.539444E-3	6.040758E-3	6.569544E-3	8.121432E-3	1.403232E-3	1.086654E-3
10/19/2017  17:30:57.868089	3.188134E-1	1.180425E-3	7.977424E-3	5.670702E-3	7.152725E-3	1.570679E-3	1.394186E-2	1.716945E-3
10/19/2017  17:30:57.869089	2.205602E-1	1.652347E-3	4.950220E-3	9.994307E-3	1.395068E-3	1.106105E-3	1.441017E-3	5.814937E-3
10/19/2017  17:30:57.870089	2.165168E-1	6.304153E-3	1.055272E-3	7.919426E-3	1.172545E-3	1.437199E-3	1.726920E-3	2.004680E-3
10/19/2017  17:30:57.871089	3.652463E-1	2.944120E-3	3.988037E-3	6.091305E-3	8.072580E-4	5.359739E-3	4.072514E-3	8.680611E-4
10/19/2017  17:30:57.872089	9.392748E-1	4.265191E-4	9.828956E-4	1.986852E-3	3.820457E-3	5.029612E-3	3.467476E-3	7.807947E-4
10/19/2017  17:30:57.873089	2.434147E+0	2.940871E-3	1.606621E-2	3.077179E-3	2.643089E-3	3.661317E-3	1.406653E-3	1.434298E-3
10/19/2017  17:30:57.874089	6.270305E-1	3.995248E-3	6.228660E-3	2.075237E-3	4.837917E-3	1.810716E-3	1.654119E-3	7.233832E-3
10/19/2017  17:30:57.875089	1.285767E+0	4.169895E-3	2.603390E-3	2.931191E-3	7.855285E-3	9.990388E-3	1.028714E-2	2.160414E-4
								
10/19/2017  17:30:57.876089	1.857545E-1	3.069253E-3	6.381415E-3	4.216901E-3	7.652174E-3	6.184483E-3	5.248443E-3	7.093519E-3
10/19/2017  17:30:57.877089	5.573345E-1	5.157755E-4	1.800895E-4	9.227417E-3	9.959251E-4	4.011207E-3	5.121603E-3	1.315663E-3
10/19/2017  17:30:57.878089	5.487575E-1	2.036792E-2	6.456344E-3	5.855774E-3	7.179148E-3	2.507892E-3	3.752725E-3	1.475202E-3
10/19/2017  17:30:57.879089	4.757903E-1	5.646248E-3	1.299406E-4	1.639432E-2	1.695778E-3	3.428341E-3	4.504515E-4	4.893939E-3
10/19/2017  17:30:57.880089	1.653775E+0	9.744783E-4	8.774861E-3	1.512270E-3	1.019895E-2	3.877960E-3	6.258073E-3	3.765631E-3
10/19/2017  17:30:57.881089	1.593807E-1	7.949687E-3	3.991883E-3	7.052316E-3	7.098719E-4	6.843244E-3	6.466615E-3	9.901617E-3
10/19/2017  17:30:57.882089	1.768226E+0	6.211296E-3	1.815811E-3	4.180134E-3	1.483023E-2	1.000079E-2	2.014419E-4	5.277378E-3
10/19/2017  17:30:57.883089	2.369619E+0	2.568745E-3	8.100468E-3	1.818356E-3	6.349421E-4	7.532711E-3	7.215433E-3	4.383438E-4
10/19/2017  17:30:57.884089	1.006022E-1	4.452837E-3	1.461480E-3	6.565825E-3	7.453501E-3	3.227835E-3	7.670112E-3	2.130289E-4
10/19/2017  17:30:57.885089	8.453011E-1	1.530214E-3	1.240688E-3	3.773937E-3	9.365291E-4	2.206802E-3	9.645716E-4	3.705180E-5
10/19/2017  17:30:57.886089	3.441412E-1	2.816125E-3	9.859329E-4	1.032661E-2	6.058971E-3	5.101310E-3	1.144537E-2	2.253833E-3
10/19/2017  17:30:57.887089	2.584487E-1	5.031616E-3	7.695034E-4	8.156213E-3	1.072112E-6	1.011698E-2	5.302980E-3	2.677230E-3
10/19/2017  17:30:57.888089	9.893378E-1	4.028030E-3	1.572306E-3	1.925855E-3	4.377753E-3	6.210248E-3	4.221175E-3	3.699245E-4
10/19/2017  17:30:57.889089	4.427226E-1	3.319872E-3	1.144195E-3	1.128437E-2	3.005421E-3	1.126229E-2	3.279087E-3	8.242299E-3
10/19/2017  17:30:57.890089	8.055645E-1	6.264468E-3	3.059872E-3	9.989480E-3	1.868176E-3	3.611946E-3	3.074312E-4	3.224472E-3
10/19/2017  17:30:57.891089	4.424089E-1	7.069343E-3	4.302100E-3	7.591795E-3	9.876847E-3	6.388386E-3	2.476129E-3	4.888576E-3
10/19/2017  17:30:57.892089	1.825732E-1	9.926420E-3	4.985913E-3	7.456701E-3	1.587975E-3	2.505629E-3	2.548443E-3	1.560269E-3
10/19/2017  17:30:57.893089	2.776147E-1	2.915317E-3	9.902168E-3	1.478110E-3	7.618369E-3	6.896629E-3	1.121252E-2	1.251553E-3
10/19/2017  17:30:57.894089	1.918152E+0	6.589979E-3	1.155255E-2	9.999045E-3	5.705413E-3	4.052422E-4	3.148641E-3	5.509917E-3
10/19/2017  17:30:57.895089	1.304877E+0	2.338403E-3	7.247892E-3	4.842741E-3	4.228731E-3	4.294931E-3	9.066565E-3	2.828472E-3
10/19/2017  17:30:57.896089	1.916930E+0	5.166058E-3	1.400416E-2	8.414078E-4	5.693706E-3	1.005618E-3	2.151337E-5	8.709424E-3
10/19/2017  17:30:57.897089	1.510117E-1	6.028082E-3	5.543356E-3	2.158617E-3	3.975887E-4	2.895957E-3	9.659652E-5	1.732676E-3
10/19/2017  17:30:57.898089	1.083379E+0	1.151268E-4	8.596757E-3	1.407767E-3	1.723064E-3	8.418754E-3	2.309933E-3	7.729753E-3
10/19/2017  17:30:57.899089	1.702902E+0	4.558774E-3	3.947493E-4	4.627946E-3	3.326211E-3	7.467404E-3	2.674671E-3	1.268476E-3
10/19/2017  17:30:57.900089	9.755688E-1	1.067472E-3	1.772767E-3	4.314503E-3	4.647584E-3	5.663545E-3	3.981184E-3	3.427527E-3
10/19/2017  17:30:57.901089	1.591421E+0	2.899442E-3	1.086930E-3	1.283474E-2	5.370035E-3	2.344363E-3	3.907946E-3	4.472811E-3
10/19/2017  17:30:57.902089	1.259527E+0	2.525419E-4	1.201208E-3	7.665656E-3	3.049655E-3	9.286294E-3	7.949340E-4	7.969353E-3
10/19/2017  17:30:57.903089	3.617845E-1	6.855133E-3	2.769886E-3	5.003748E-3	2.526447E-3	4.347204E-3	4.997449E-3	6.743022E-4
10/19/2017  17:30:57.904089	5.088458E-1	2.673914E-3	4.899606E-3	5.214477E-3	9.411492E-5	1.140918E-3	1.315015E-3	3.944017E-3
10/19/2017  17:30:57.905089	1.831131E-1	2.624194E-3	3.747425E-3	1.221839E-2	1.059887E-2	7.230582E-4	3.574349E-3	5.851821E-3
10/19/2017  17:30:57.906089	5.996796E-2	4.166547E-3	5.980991E-4	6.976910E-3	2.472392E-3	6.090271E-3	2.631342E-3	6.143888E-3
10/19/2017  17:30:57.907089	2.862234E-1	2.919044E-3	4.651959E-4	5.051866E-3	2.521646E-2	6.390571E-3	2.480279E-3	1.711313E-3
10/19/2017  17:30:57.908089	1.465544E-1	1.862154E-3	3.478563E-4	1.254761E-3	5.089537E-3	1.986682E-4	3.885536E-3	3.780315E-3
								
10/19/2017  17:30:57.909089	1.331901E+0	9.788643E-4	2.404553E-3	5.884829E-4	7.495565E-3	6.681911E-4	4.700979E-3	7.621862E-3
10/19/2017  17:30:57.910089	8.615590E-1	4.063934E-3	7.031903E-3	1.076071E-2	1.075305E-3	5.344783E-3	5.753910E-3	3.600534E-3
10/19/2017  17:30:57.911089	1.128177E+0	1.072888E-3	8.093875E-3	9.826339E-4	5.793952E-3	1.272004E-4	8.738651E-3	5.546303E-4
10/19/2017  17:30:57.912089	3.641807E-1	3.257482E-3	5.652472E-3	5.070390E-3	2.509358E-3	2.867446E-4	4.610524E-3	5.975316E-3
10/19/2017  17:30:57.913089	6.541638E-1	1.871823E-3	9.354967E-3	1.284723E-3	2.437890E-3	4.919577E-3	1.091416E-3	1.551669E-2
10/19/2017  17:30:57.914089	1.052384E-1	3.578348E-3	6.798536E-3	1.449123E-2	3.715927E-3	9.219067E-3	5.636771E-3	2.104361E-3
10/19/2017  17:30:57.915089	1.356195E-2	1.386091E-2	6.160583E-3	5.744761E-3	4.210846E-3	1.127500E-2	2.739285E-3	4.697621E-3
10/19/2017  17:30:57.916089	9.966959E-1	3.370386E-3	6.579586E-3	3.018286E-3	5.399452E-3	1.258643E-2	2.193247E-3	1.456658E-3
10/19/2017  17:30:57.917089	9.705882E-1	6.523441E-3	8.277304E-5	1.139872E-2	5.263238E-3	4.342549E-3	8.184448E-3	1.556270E-3
10/19/2017  17:30:57.918089	1.458025E-1	4.736130E-3	2.472273E-3	1.044772E-2	1.905687E-3	3.427094E-3	1.211089E-2	5.531165E-4
10/19/2017  17:30:57.919089	7.247466E-1	5.402466E-3	8.547100E-3	6.134946E-4	1.239277E-2	2.643593E-3	9.409546E-3	4.478045E-3
10/19/2017  17:30:57.920089	7.748925E-1	4.814737E-3	4.230063E-4	2.230405E-3	4.447834E-3	1.979338E-3	9.433628E-3	2.855417E-3
10/19/2017  17:30:57.921089	9.241124E-1	9.632141E-3	1.335178E-2	8.551229E-3	7.754601E-3	1.422334E-3	3.900686E-3	3.646158E-3
10/19/2017  17:30:57.922089	3.192254E-1	4.165859E-3	4.322517E-4	4.102610E-3	1.141164E-3	9.612908E-4	8.990160E-3	1.111828E-2
10/19/2017  17:30:57.923089	1.583202E-1	5.301546E-3	1.109857E-2	3.601383E-3	5.838571E-3	8.048418E-3	7.222490E-3	1.480410E-2
10/19/2017  17:30:57.924089	1.750428E-1	1.566220E-3	8.121015E-3	3.985112E-3	4.096462E-3	3.119703E-3	7.825990E-3	4.821078E-3
10/19/2017  17:30:57.925089	1.019523E-1	3.360921E-3	8.878095E-4	2.789333E-3	8.194848E-3	1.053978E-2	7.097082E-4	7.973863E-3
10/19/2017  17:30:57.926089	1.572745E-1	6.757594E-3	7.363595E-3	6.849133E-3	5.872977E-3	3.901311E-3	4.660453E-3	9.035334E-4
10/19/2017  17:30:57.927089	8.380852E-1	6.235054E-3	1.255757E-3	4.833182E-3	4.023053E-4	7.707385E-3	3.513271E-3	7.815016E-4
10/19/2017  17:30:57.928089	1.086352E+0	1.100668E-2	9.235707E-4	5.506772E-3	2.757432E-3	3.659196E-3	1.532746E-3	6.577624E-4
10/19/2017  17:30:57.929089	1.980893E+0	9.822587E-3	6.358556E-4	4.083157E-3	4.339486E-3	5.881388E-3	1.392643E-3	4.851872E-3
10/19/2017  17:30:57.930089	6.304047E-1	2.803042E-3	1.770108E-3	7.924433E-3	7.440344E-3	4.811296E-3	7.337728E-3	5.473640E-3
10/19/2017  17:30:57.931089	4.028365E-1	6.703418E-3	7.368704E-3	3.250512E-3	1.516113E-3	1.015578E-2	8.319273E-3	5.629198E-3
10/19/2017  17:30:57.932089	3.228370E-1	4.028499E-3	2.790536E-3	3.709913E-4	3.611434E-3	1.579355E-3	1.060648E-2	5.377465E-3
10/19/2017  17:30:57.933089	2.812842E-1	2.942789E-3	4.997799E-3	4.779659E-3	2.825268E-3	1.347872E-3	3.121625E-3	8.809192E-3
10/19/2017  17:30:57.934089	6.012957E-2	8.492457E-3	3.801270E-4	3.421117E-3	1.215444E-5	5.458132E-3	2.456430E-3	6.601267E-3
10/19/2017  17:30:57.935089	4.605432E-1	3.046076E-3	4.200471E-3	8.755322E-3	2.037868E-3	4.776883E-3	4.252186E-3	1.756835E-3
10/19/2017  17:30:57.936089	1.354933E-1	9.103705E-3	8.404489E-3	1.592758E-2	9.461994E-4	3.285143E-3	1.085061E-3	9.852623E-3
10/19/2017  17:30:57.937089	1.336809E+0	1.203177E-4	2.304910E-3	2.219016E-2	1.251120E-3	8.757519E-3	2.687138E-3	2.064128E-3
10/19/2017  17:30:57.938089	1.734003E+0	4.189881E-3	9.144479E-4	1.110232E-2	4.912451E-3	1.929749E-3	3.674046E-3	8.433331E-3
10/19/2017  17:30:57.939089	1.559248E-2	3.704909E-3	1.060116E-3	2.384713E-2	3.536733E-3	9.558910E-3	1.588759E-4	2.979759E-4
10/19/2017  17:30:57.940089	8.167454E-2	1.139170E-2	9.780499E-3	2.622255E-3	3.012643E-3	1.149857E-4	2.981161E-3	8.724929E-3
10/19/2017  17:30:57.941089	2.269752E-1	3.041705E-3	4.947238E-4	4.311546E-3	3.667865E-4	6.719090E-3	9.257485E-3	2.900361E-3
								
10/19/2017  17:30:57.942089	8.183271E-2	9.014610E-3	4.074800E-3	3.289341E-3	2.799109E-3	3.762561E-3	1.710994E-3	2.540082E-3
10/19/2017  17:30:57.943089	1.179449E+0	1.075553E-2	1.445994E-3	6.531084E-3	2.278454E-3	3.984504E-3	1.284982E-3	8.665950E-3
10/19/2017  17:30:57.944089	8.538908E-2	3.624492E-3	1.830129E-2	3.544878E-4	1.808318E-3	2.913708E-3	3.410243E-3	2.429171E-3
