Parameters: 	Upper Cutoff: : 500	Lower Cutoff: : 30	Sample Rate (HZ)1000	Frames Per Second: 30	Display Window Size (S)400	MVC Window Size (s): 400	Seconds To Acquire MVC: 3	Display Channel: 0
waveform	[0]	[1]	[2]	[3]	[4]	[5]	[6]	[7]
t0	10/19/2017  17:44:51.098356	10/19/2017  17:44:51.098356	10/19/2017  17:44:51.098356	10/19/2017  17:44:51.098356	10/19/2017  17:44:51.098356	10/19/2017  17:44:51.098356	10/19/2017  17:44:51.098356	10/19/2017  17:44:51.098356
delta t	0.001000	0.001000	0.001000	0.001000	0.001000	0.001000	0.001000	0.001000

time	Y[0]	Y[1]	Y[2]	Y[3]	Y[4]	Y[5]	Y[6]	Y[7]
10/19/2017  17:44:51.079896	2.838595E-1	1.054207E-2	6.929839E-3	1.467946E-3	4.071619E-3	7.634427E-3	8.622867E-4	7.733363E-3
10/19/2017  17:44:51.080896	4.004045E-1	2.198585E-6	3.641770E-3	3.098005E-3	2.196077E-4	1.520978E-3	6.818473E-3	3.644012E-3
10/19/2017  17:44:51.081896	5.843369E-1	1.247627E-2	5.418932E-3	6.378882E-3	1.101450E-3	5.078564E-3	2.148568E-3	2.290431E-3
10/19/2017  17:44:51.082896	3.712617E-2	2.964714E-3	6.084623E-3	2.359197E-3	1.221744E-2	8.646629E-4	4.634079E-4	4.763116E-3
10/19/2017  17:44:51.083896	4.444154E-1	1.814165E-2	4.014189E-3	9.476001E-3	2.739991E-3	1.170347E-2	5.927792E-3	1.292222E-3
10/19/2017  17:44:51.084896	4.687785E-2	1.018111E-2	3.826640E-3	5.052630E-3	2.694012E-4	5.701981E-3	3.334537E-3	1.280546E-2
10/19/2017  17:44:51.085896	2.623028E-1	1.272540E-2	1.063104E-2	5.582332E-3	6.000329E-3	3.872745E-5	6.820298E-3	3.368499E-3
10/19/2017  17:44:51.086896	1.978954E-1	8.816580E-3	4.528768E-3	8.523352E-3	8.387000E-4	3.294933E-3	4.216992E-4	7.148419E-3
10/19/2017  17:44:51.087896	3.633811E-1	6.948466E-4	5.698697E-3	1.953770E-2	2.568768E-3	8.804387E-4	5.486863E-3	5.012388E-3
10/19/2017  17:44:51.088896	2.525415E-1	2.471120E-3	4.298437E-4	6.926804E-3	2.588010E-3	4.852457E-3	1.426872E-3	6.053958E-3
10/19/2017  17:44:51.089896	7.663087E-2	2.654589E-3	6.042782E-3	7.620621E-3	4.497271E-3	4.095763E-3	5.605360E-3	8.378248E-3
10/19/2017  17:44:51.090896	2.367595E-1	4.223084E-4	1.181331E-3	6.057028E-3	7.337164E-3	7.346508E-3	2.786546E-4	1.071272E-3
10/19/2017  17:44:51.091896	1.829285E-1	4.252865E-3	4.290160E-3	4.671461E-3	4.332675E-4	4.705795E-3	6.102175E-3	5.522029E-3
10/19/2017  17:44:51.092896	1.669455E-1	5.769441E-3	1.044933E-3	1.340618E-2	7.829746E-3	1.365698E-3	5.511352E-4	6.867107E-3
10/19/2017  17:44:51.093896	3.043204E-1	9.368702E-3	5.275475E-3	2.479684E-3	7.826183E-3	1.030248E-3	4.635275E-3	2.154875E-3
10/19/2017  17:44:51.094896	4.006258E-1	1.525668E-2	8.878270E-3	8.090281E-3	7.249961E-4	1.206310E-3	5.191426E-3	5.534141E-3
10/19/2017  17:44:51.095896	2.247929E-1	3.044698E-3	9.496395E-3	3.120457E-3	1.720181E-3	9.532649E-3	7.071211E-4	8.817996E-3
10/19/2017  17:44:51.096896	7.041367E-2	6.765656E-3	1.616431E-2	3.667060E-3	2.899050E-3	2.702639E-3	6.171767E-3	3.180958E-3
10/19/2017  17:44:51.097896	1.405681E-1	5.725724E-3	1.252134E-2	6.379142E-3	2.569317E-3	1.999839E-3	8.511657E-5	4.324453E-3
10/19/2017  17:44:51.098896	3.197473E-1	9.111033E-3	9.097356E-4	6.004610E-3	7.702858E-3	4.579905E-3	1.880756E-3	7.279415E-3
10/19/2017  17:44:51.099896	2.629355E-1	5.402893E-3	3.215542E-3	4.758736E-3	1.183730E-2	7.763896E-3	7.182583E-3	3.076913E-4
10/19/2017  17:44:51.100896	3.124077E-1	7.387435E-3	4.832736E-4	1.035833E-3	5.266283E-3	2.629124E-3	3.856140E-3	7.013828E-3
10/19/2017  17:44:51.101896	1.584546E-1	6.392794E-4	1.099257E-3	6.463715E-3	3.306291E-3	2.823196E-3	2.292965E-3	5.699064E-4
10/19/2017  17:44:51.102896	2.544423E-1	5.519442E-3	3.801307E-3	8.407354E-4	1.998629E-4	2.597699E-6	6.857052E-3	5.773763E-4
10/19/2017  17:44:51.103896	2.389979E-1	3.219642E-3	3.062052E-3	1.339654E-3	3.519182E-4	7.612563E-3	4.110056E-3	5.394732E-4
10/19/2017  17:44:51.104896	9.665193E-2	1.029996E-2	5.185201E-3	1.751988E-2	1.039372E-2	1.244972E-2	4.474977E-3	9.469521E-3
10/19/2017  17:44:51.105896	3.012664E-3	2.290901E-3	2.178313E-3	1.812589E-3	4.639902E-4	1.747685E-3	5.701090E-3	1.123276E-2
10/19/2017  17:44:51.106896	1.848083E-1	2.079571E-3	1.020593E-2	8.132046E-3	2.112640E-2	4.942879E-3	5.230123E-4	4.966999E-3
10/19/2017  17:44:51.107896	1.681473E-1	5.481795E-3	4.234040E-3	4.327685E-3	6.149089E-3	7.380229E-3	2.291869E-3	5.351424E-3
10/19/2017  17:44:51.108896	2.078325E-1	2.277139E-3	7.827875E-3	6.515110E-3	1.835200E-2	3.009016E-4	4.808343E-3	5.233973E-3
10/19/2017  17:44:51.109896	7.409553E-1	2.764611E-3	1.429222E-3	1.287489E-3	5.881958E-3	4.087744E-3	3.242403E-3	3.301875E-3
10/19/2017  17:44:51.110896	5.580240E-1	3.260913E-3	1.006481E-3	1.347992E-4	4.311223E-3	5.536034E-3	2.070559E-3	1.021207E-2
10/19/2017  17:44:51.111896	3.465455E-1	4.738278E-3	4.386498E-3	1.900173E-2	9.727456E-4	3.058521E-3	1.106741E-2	3.447147E-3
								
10/19/2017  17:44:51.112896	1.770943E+0	3.245886E-3	1.190430E-2	1.158806E-3	7.901446E-3	2.096711E-3	1.241971E-2	3.172624E-3
10/19/2017  17:44:51.113896	7.310870E-1	5.990453E-3	8.086214E-4	1.152307E-2	6.151313E-4	1.060410E-2	3.818522E-3	3.122235E-3
10/19/2017  17:44:51.114896	7.216297E-1	2.922797E-3	3.790728E-3	3.065316E-3	1.955675E-3	8.572144E-3	2.169738E-3	3.015743E-3
10/19/2017  17:44:51.115896	2.623300E-1	3.733925E-3	4.846655E-3	2.814680E-4	5.952903E-4	1.665828E-3	4.879342E-3	5.614774E-3
10/19/2017  17:44:51.116896	3.032484E-1	7.319781E-3	7.823837E-3	6.323876E-3	4.042339E-3	4.669008E-3	3.972220E-3	1.050141E-2
10/19/2017  17:44:51.117896	5.834956E-1	9.289174E-3	6.980965E-3	5.336348E-4	1.026189E-2	3.887977E-3	9.115463E-3	5.361502E-3
10/19/2017  17:44:51.118896	7.160671E-1	8.813002E-3	1.610225E-2	4.705564E-3	1.866113E-3	1.675172E-2	4.478050E-3	9.329589E-3
10/19/2017  17:44:51.119896	5.534105E-1	6.139867E-3	3.201104E-3	7.121341E-3	3.127811E-3	1.087274E-2	4.258975E-4	1.485043E-3
10/19/2017  17:44:51.120896	4.940365E-1	5.274138E-3	8.845440E-3	8.238295E-3	4.073007E-4	2.984322E-3	2.124797E-3	4.402751E-3
10/19/2017  17:44:51.121896	1.268034E-1	1.003689E-2	4.410770E-3	2.913501E-3	5.400982E-3	8.545993E-4	4.693980E-4	4.329220E-3
10/19/2017  17:44:51.122896	5.428907E-2	7.541134E-3	1.263299E-4	1.063188E-2	3.604229E-3	7.200695E-3	1.980034E-3	5.251344E-4
10/19/2017  17:44:51.123896	8.115358E-3	7.764336E-3	8.523847E-3	1.990944E-3	1.682567E-2	5.058790E-4	1.302990E-3	6.893718E-4
10/19/2017  17:44:51.124896	3.327268E-2	1.118207E-2	2.921450E-3	1.150091E-2	8.631750E-3	5.611652E-3	5.216253E-3	5.502714E-3
10/19/2017  17:44:51.125896	8.100209E-2	5.776777E-3	1.718729E-3	3.237914E-3	1.548414E-2	5.146181E-3	5.215867E-3	3.882230E-3
10/19/2017  17:44:51.126896	1.187619E-1	2.174718E-3	7.119450E-3	2.034178E-3	1.175851E-2	1.330272E-3	3.143285E-3	8.773593E-3
10/19/2017  17:44:51.127896	2.977638E-1	4.711166E-3	1.540511E-4	2.853614E-3	9.424544E-3	1.123908E-3	2.452021E-3	3.832091E-3
10/19/2017  17:44:51.128896	3.118324E-1	2.323908E-3	2.702727E-3	6.398289E-3	4.912389E-3	2.514731E-3	2.248931E-3	2.447691E-3
10/19/2017  17:44:51.129896	1.709505E-1	2.635353E-3	1.225589E-4	2.485509E-3	1.334876E-3	4.852509E-3	3.112334E-3	1.325931E-2
10/19/2017  17:44:51.130896	6.347202E-2	3.195762E-3	1.377784E-3	2.162025E-2	2.913149E-3	1.043708E-3	7.753269E-3	1.437572E-3
10/19/2017  17:44:51.131896	1.186331E+0	7.673952E-3	7.883045E-3	4.718302E-3	8.790593E-3	5.873896E-4	8.315343E-3	8.535500E-3
10/19/2017  17:44:51.132896	1.303410E+0	7.805357E-3	9.124140E-4	6.701015E-3	2.801625E-3	3.712883E-3	7.503738E-3	4.299673E-3
10/19/2017  17:44:51.133896	2.917499E-1	4.694660E-3	3.428948E-3	7.486149E-3	2.337294E-3	3.961503E-3	1.655914E-3	3.409804E-3
10/19/2017  17:44:51.134896	1.378771E-1	4.096797E-3	4.210461E-3	3.398114E-3	3.255110E-3	3.332343E-4	1.171323E-3	4.600060E-3
10/19/2017  17:44:51.135896	1.768853E-1	7.163821E-3	5.436180E-3	6.600199E-3	5.250963E-4	9.268399E-4	4.763761E-3	4.905019E-3
10/19/2017  17:44:51.136896	2.807173E-1	7.549597E-3	2.829787E-3	6.016716E-3	4.842807E-3	6.482019E-3	5.433075E-3	9.342266E-3
10/19/2017  17:44:51.137896	4.841568E-1	4.065218E-3	1.701139E-2	2.745043E-3	7.049971E-3	1.446920E-2	5.186692E-3	6.681243E-3
10/19/2017  17:44:51.138896	3.828842E-1	8.800959E-3	4.337268E-3	9.815260E-3	1.697423E-3	3.938668E-3	1.488313E-3	8.441033E-5
10/19/2017  17:44:51.139896	3.082535E-1	7.111059E-3	3.145093E-3	8.787455E-3	3.840256E-3	1.292768E-2	1.547429E-3	8.239306E-3
10/19/2017  17:44:51.140896	1.291445E-1	5.625165E-3	3.784594E-3	9.474244E-3	1.293923E-2	2.694568E-3	2.452574E-3	3.469060E-3
10/19/2017  17:44:51.141896	9.350237E-3	8.457029E-4	2.365000E-3	1.289922E-2	2.672072E-3	6.080409E-3	3.385651E-3	1.031670E-2
10/19/2017  17:44:51.142896	4.426086E-2	1.024996E-2	3.995352E-3	5.551458E-4	7.301200E-5	5.588910E-3	7.634638E-4	6.432289E-3
10/19/2017  17:44:51.143896	7.634923E-2	2.333205E-4	3.294692E-3	2.859675E-3	1.454115E-3	5.257544E-3	8.363211E-4	1.747196E-3
10/19/2017  17:44:51.144896	5.403596E-2	7.869921E-3	6.540221E-3	1.100743E-4	1.178130E-2	3.507376E-3	1.225401E-2	1.449910E-3
								
10/19/2017  17:44:51.145896	2.324459E-1	7.890281E-3	1.194870E-2	8.448312E-3	1.175169E-3	7.810471E-3	7.939738E-4	3.343316E-3
10/19/2017  17:44:51.146896	3.477384E-1	2.928051E-3	1.903274E-3	1.168119E-3	9.274649E-4	1.986006E-3	8.767231E-3	7.695809E-3
10/19/2017  17:44:51.147896	9.961273E-2	4.345134E-3	1.234888E-2	1.491015E-2	1.926819E-3	3.904625E-3	5.063345E-3	4.274466E-3
10/19/2017  17:44:51.148896	3.301578E-1	1.589906E-3	2.248732E-3	2.083726E-3	3.547104E-3	7.948091E-4	1.103330E-3	1.128815E-2
10/19/2017  17:44:51.149896	3.597174E-1	1.128300E-3	9.757140E-4	1.244426E-2	6.216444E-3	4.821462E-3	1.463216E-3	1.401379E-3
10/19/2017  17:44:51.150896	1.148154E-1	5.199594E-3	5.911681E-3	8.188043E-3	1.072187E-2	6.818237E-3	5.012718E-3	9.077264E-3
10/19/2017  17:44:51.151896	1.822374E-1	7.390106E-3	2.362977E-3	9.904072E-3	4.111801E-3	1.257755E-2	1.521336E-3	6.987787E-3
10/19/2017  17:44:51.152896	7.815065E-2	2.485723E-3	1.230178E-3	2.156838E-3	1.037082E-2	6.548750E-3	3.482664E-3	2.465290E-4
10/19/2017  17:44:51.153896	2.079075E-1	8.724149E-3	5.561897E-3	8.172195E-4	2.334903E-3	5.660987E-3	1.345930E-2	5.146793E-5
10/19/2017  17:44:51.154896	3.345408E-1	2.794027E-3	1.115149E-2	4.585141E-3	2.829414E-3	1.486316E-3	5.077856E-4	1.878416E-3
10/19/2017  17:44:51.155896	2.122558E-1	9.140549E-3	6.525094E-3	4.465265E-3	1.761764E-3	1.870214E-3	9.696795E-3	3.203118E-3
10/19/2017  17:44:51.156896	4.536813E-1	1.695901E-3	5.003435E-3	6.854505E-5	6.923895E-3	6.024664E-3	5.278150E-3	6.048624E-3
10/19/2017  17:44:51.157896	4.533451E-1	3.030058E-3	1.049351E-2	4.908232E-3	6.047878E-4	2.096348E-3	2.068415E-4	7.562334E-4
10/19/2017  17:44:51.158896	4.479146E-1	6.288220E-3	8.736815E-3	9.440913E-3	5.248340E-3	1.505644E-3	7.109019E-3	8.865499E-3
10/19/2017  17:44:51.159896	5.243732E-1	9.350823E-3	4.372933E-3	1.316600E-3	5.658855E-3	9.953289E-4	6.702664E-3	2.946855E-3
10/19/2017  17:44:51.160896	4.351788E-1	5.728132E-3	6.182577E-3	1.904929E-3	1.379021E-3	8.514075E-3	2.143071E-4	7.946943E-3
10/19/2017  17:44:51.161896	1.613325E-3	7.286557E-3	6.821389E-3	1.575642E-2	6.547371E-3	1.720905E-3	2.552165E-3	2.854955E-4
10/19/2017  17:44:51.162896	1.769593E-1	9.532025E-3	6.596590E-3	1.149376E-3	4.988728E-3	5.971016E-3	1.862856E-3	4.495034E-3
10/19/2017  17:44:51.163896	3.059062E-1	9.164838E-3	5.768860E-3	3.491904E-3	4.245744E-3	8.105108E-3	1.357071E-3	2.903973E-3
10/19/2017  17:44:51.164896	2.586482E-1	4.182851E-3	6.544559E-3	2.659644E-3	1.457502E-2	5.264225E-3	2.983844E-3	2.837337E-3
10/19/2017  17:44:51.165896	2.059700E-1	5.219538E-3	3.809508E-3	1.186390E-2	1.150177E-3	6.962669E-3	8.175892E-3	2.140987E-3
10/19/2017  17:44:51.166896	7.082860E-1	1.339789E-2	1.404243E-2	3.626644E-3	4.675939E-3	8.652254E-3	2.190502E-3	2.452513E-3
10/19/2017  17:44:51.167896	5.818549E-1	5.540701E-3	2.736478E-3	6.918322E-3	5.600268E-3	7.496770E-3	9.797646E-3	6.917670E-3
10/19/2017  17:44:51.168896	6.305215E-2	7.932342E-3	6.625166E-4	7.563426E-3	2.587112E-3	7.741123E-5	1.567767E-3	7.983540E-3
10/19/2017  17:44:51.169896	6.888969E-1	2.295042E-3	1.275487E-2	6.294514E-3	6.311173E-4	6.539157E-3	1.661964E-3	2.194551E-3
10/19/2017  17:44:51.170896	1.831726E-1	1.787103E-3	6.048593E-3	1.227364E-2	4.540528E-3	6.030901E-3	7.536599E-3	4.401404E-3
10/19/2017  17:44:51.171896	1.006008E-1	8.267841E-3	6.974302E-3	1.112666E-2	9.471134E-3	8.521785E-4	5.466464E-3	4.467181E-3
10/19/2017  17:44:51.172896	5.527850E-1	4.343142E-3	7.173430E-3	7.451153E-3	1.173257E-3	3.057250E-3	5.010955E-3	1.455138E-2
10/19/2017  17:44:51.173896	4.655004E-1	7.548979E-3	3.322353E-3	1.816251E-3	1.205793E-2	1.843784E-4	2.994054E-3	2.997233E-3
10/19/2017  17:44:51.174896	1.412295E-1	1.526063E-2	7.137334E-4	9.336377E-3	1.061413E-3	3.546763E-3	1.247741E-2	3.986320E-4
10/19/2017  17:44:51.175896	3.572433E-1	4.024645E-3	6.881456E-3	2.908174E-3	4.124198E-3	1.444559E-2	5.117198E-3	1.488045E-3
10/19/2017  17:44:51.176896	8.859321E-1	1.269957E-2	3.134987E-3	2.225066E-3	5.058940E-4	3.801181E-3	5.505041E-3	1.544933E-3
10/19/2017  17:44:51.177896	8.122929E-1	7.766587E-4	1.104233E-2	4.328422E-3	9.425697E-3	5.199344E-3	4.722167E-3	3.321990E-3
								
10/19/2017  17:44:51.178896	3.351910E-1	1.162804E-3	4.875754E-3	1.004887E-2	3.857039E-3	2.127867E-3	5.907120E-4	5.804819E-3
10/19/2017  17:44:51.179896	3.098168E-2	6.905674E-3	1.456334E-3	1.975030E-3	1.564356E-3	1.802032E-2	5.986986E-3	8.173815E-4
10/19/2017  17:44:51.180896	4.067436E-1	1.337910E-2	1.353889E-3	1.216439E-3	1.893654E-3	3.127689E-3	2.504481E-3	1.037516E-2
10/19/2017  17:44:51.181896	1.315800E-1	8.192131E-3	6.853706E-4	1.133220E-3	8.193605E-3	3.837466E-3	2.444596E-3	1.614347E-3
10/19/2017  17:44:51.182896	1.334633E-1	7.742040E-3	4.249850E-3	8.994478E-3	9.692253E-3	4.070031E-3	9.161879E-3	3.145872E-3
10/19/2017  17:44:51.183896	1.281973E+0	2.883120E-3	6.929929E-3	4.973389E-3	5.681210E-3	5.791873E-4	7.613867E-3	2.240095E-4
10/19/2017  17:44:51.184896	5.538584E-1	2.350646E-3	4.969020E-3	8.663708E-4	5.684710E-4	3.606573E-3	7.346061E-3	3.668541E-3
10/19/2017  17:44:51.185896	1.497353E-1	6.341186E-4	5.981015E-3	6.332771E-3	4.784309E-3	4.129908E-3	2.562784E-3	3.644384E-3
10/19/2017  17:44:51.186896	5.867051E-1	3.562654E-3	9.760518E-3	4.917014E-3	2.198254E-3	2.499192E-3	6.137550E-4	8.134677E-4
10/19/2017  17:44:51.187896	6.148596E-1	5.758098E-3	7.571341E-3	7.407278E-3	3.874077E-3	3.208376E-3	3.439553E-3	3.605201E-3
10/19/2017  17:44:51.188896	1.187430E-2	5.473091E-3	1.699334E-3	4.227636E-3	5.380952E-3	7.298703E-4	2.412010E-3	3.103275E-3
10/19/2017  17:44:51.189896	1.976233E-1	1.972478E-3	1.924874E-3	2.194772E-3	4.069128E-3	7.153668E-3	1.841206E-3	4.573522E-3
10/19/2017  17:44:51.190896	8.751556E-3	6.258631E-3	8.108732E-3	5.908981E-3	2.607943E-3	6.481516E-3	6.349833E-4	5.068905E-3
10/19/2017  17:44:51.191896	4.564670E-1	1.325805E-2	5.595151E-3	1.799884E-3	1.053867E-2	8.490884E-3	7.877734E-3	3.097726E-3
10/19/2017  17:44:51.192896	1.637855E-1	4.076472E-3	4.434620E-3	4.540923E-3	1.535949E-3	3.041435E-3	3.594396E-3	2.098999E-3
10/19/2017  17:44:51.193896	3.703667E-1	1.193224E-2	3.768513E-3	2.437159E-5	8.258821E-4	3.849453E-3	1.613569E-3	1.045308E-3
10/19/2017  17:44:51.194896	1.109064E-1	5.248848E-3	8.397379E-3	7.277419E-3	3.362905E-4	3.947901E-3	1.364768E-3	1.763398E-3
10/19/2017  17:44:51.195896	1.014771E-1	5.317773E-3	1.623010E-3	1.312467E-2	2.381288E-5	6.393252E-3	7.074136E-3	1.400967E-3
10/19/2017  17:44:51.196896	1.327137E-2	1.167114E-3	5.767776E-3	6.488735E-3	2.142249E-3	4.218163E-3	2.047744E-3	4.854870E-3
10/19/2017  17:44:51.197896	2.451905E-1	4.833603E-3	7.543818E-5	4.014034E-5	1.119186E-2	5.018966E-4	4.797296E-4	1.674138E-4
10/19/2017  17:44:51.198896	6.516026E-1	2.026217E-3	4.445837E-4	1.847689E-3	4.414894E-3	1.414794E-4	4.927765E-5	6.819879E-3
10/19/2017  17:44:51.199896	4.078699E-1	1.809843E-2	2.816540E-3	5.216874E-3	2.221423E-3	6.094041E-3	6.373669E-3	1.397334E-3
10/19/2017  17:44:51.200896	3.683920E-1	7.591687E-3	5.855470E-3	4.826797E-3	2.104543E-3	1.652374E-2	1.680361E-3	7.695365E-3
10/19/2017  17:44:51.201896	1.846843E-1	1.465712E-2	9.417878E-3	2.470306E-3	4.754099E-3	5.112979E-3	7.361663E-3	6.042961E-4
10/19/2017  17:44:51.202896	4.542343E-1	6.379111E-3	4.024298E-3	5.300190E-3	6.091130E-3	1.004341E-2	3.698551E-3	1.525234E-4
10/19/2017  17:44:51.203896	8.886538E-1	4.860543E-3	9.584166E-3	2.281163E-3	3.530870E-3	1.758056E-3	4.143093E-3	1.799778E-3
10/19/2017  17:44:51.204896	5.304822E-2	1.572358E-3	2.962960E-3	2.610015E-3	4.971649E-3	8.369086E-4	4.647426E-6	1.410990E-3
10/19/2017  17:44:51.205896	1.855497E-3	1.451863E-3	6.463981E-3	7.529674E-3	7.780299E-3	5.793764E-3	6.592540E-3	9.277203E-3
10/19/2017  17:44:51.206896	2.039513E-1	1.268756E-3	6.782561E-5	7.150851E-3	1.214326E-3	4.636372E-3	1.896842E-3	2.701663E-3
10/19/2017  17:44:51.207896	1.339610E-1	4.917875E-3	2.115697E-3	1.701506E-3	1.325819E-3	6.423836E-4	1.058125E-3	9.795839E-3
10/19/2017  17:44:51.208896	2.600196E-1	3.735034E-3	8.387569E-4	1.293158E-2	4.680200E-3	9.823624E-3	7.888408E-4	6.734600E-3
10/19/2017  17:44:51.209896	1.822275E-1	6.715644E-3	2.600215E-3	7.389680E-3	5.786256E-3	6.641855E-3	3.423164E-3	4.330230E-3
10/19/2017  17:44:51.210896	2.302424E-1	6.051854E-3	8.487754E-3	2.668052E-3	8.186606E-3	4.210682E-3	1.024784E-2	4.601691E-4
								
10/19/2017  17:44:51.211896	4.851689E-1	1.383024E-3	1.526321E-3	1.342511E-2	6.123484E-3	3.633282E-3	2.283027E-3	3.981637E-3
10/19/2017  17:44:51.212896	2.250641E-1	5.582570E-3	3.634522E-3	3.869754E-3	4.479726E-3	1.866758E-3	5.829561E-3	8.232523E-3
10/19/2017  17:44:51.213896	5.561417E-3	6.603461E-4	6.652734E-3	8.136927E-3	8.803608E-3	1.086452E-3	6.434105E-3	1.032394E-3
10/19/2017  17:44:51.214896	2.818157E-1	9.442995E-3	7.276301E-5	5.983836E-3	3.993232E-3	3.473494E-3	6.461946E-4	5.469551E-3
10/19/2017  17:44:51.215896	4.975937E-2	6.645294E-4	3.760034E-3	1.572273E-4	7.623338E-3	2.038443E-3	6.982553E-3	1.032623E-3
10/19/2017  17:44:51.216896	1.670281E-1	9.917253E-4	2.265597E-3	5.696766E-4	7.394170E-4	3.244955E-3	1.698231E-3	4.946064E-3
10/19/2017  17:44:51.217896	1.468813E-2	3.118341E-3	7.782347E-3	7.660172E-4	2.263426E-3	1.423087E-2	8.707975E-4	9.015101E-4
10/19/2017  17:44:51.218896	2.153290E-1	9.545309E-3	1.527451E-3	5.168189E-3	2.037798E-3	3.788702E-4	5.700482E-3	1.694022E-3
10/19/2017  17:44:51.219896	2.217990E-1	6.758378E-3	8.428466E-4	7.632430E-3	3.559470E-3	1.141915E-2	2.765854E-3	9.117601E-3
10/19/2017  17:44:51.220896	1.461032E-2	4.467498E-3	1.752497E-4	7.898439E-4	8.677851E-3	1.261719E-3	5.717825E-3	8.152217E-4
10/19/2017  17:44:51.221896	3.611062E-1	5.332049E-3	1.024875E-2	1.238539E-2	4.957576E-3	1.073829E-3	4.971366E-3	6.429492E-3
10/19/2017  17:44:51.222896	1.707109E-1	3.086337E-3	4.266477E-3	5.756598E-3	1.386885E-2	7.550671E-3	5.091069E-3	1.230316E-2
10/19/2017  17:44:51.223896	8.730181E-3	1.957152E-3	4.821998E-3	1.253040E-2	2.210743E-3	3.846245E-3	1.324136E-3	3.228387E-3
10/19/2017  17:44:51.224896	7.679519E-2	1.030119E-3	2.707023E-3	2.323483E-3	7.127028E-3	3.408832E-3	1.211577E-3	6.560529E-3
10/19/2017  17:44:51.225896	2.561260E-1	2.876155E-4	3.087180E-3	8.115551E-4	1.730494E-4	5.452887E-3	1.085506E-3	7.873424E-3
10/19/2017  17:44:51.226896	9.628808E-2	8.239009E-3	1.057319E-3	9.228784E-3	6.155354E-3	9.863570E-3	4.924834E-3	6.006383E-3
10/19/2017  17:44:51.227896	2.005304E-1	4.753045E-3	3.612032E-3	3.548837E-3	4.479267E-3	4.476797E-3	5.117364E-3	2.072718E-3
10/19/2017  17:44:51.228896	9.488779E-2	1.407330E-4	9.489891E-4	3.223011E-3	5.531031E-4	7.849200E-4	3.156913E-3	4.461491E-3
10/19/2017  17:44:51.229896	5.698383E-1	6.743110E-3	6.945919E-4	9.088938E-3	5.948634E-3	7.519386E-3	9.915466E-3	1.974385E-3
10/19/2017  17:44:51.230896	8.766293E-1	4.374726E-3	6.397850E-3	4.335023E-3	6.556819E-3	6.053911E-3	4.859290E-3	7.783640E-3
10/19/2017  17:44:51.231896	8.816412E-2	3.494229E-3	1.015339E-2	1.034958E-2	3.562913E-3	1.881844E-3	7.566722E-3	1.324572E-3
10/19/2017  17:44:51.232896	4.069565E-1	6.603428E-5	9.405931E-3	7.634840E-4	8.682547E-3	4.828842E-3	5.800258E-4	8.267468E-4
10/19/2017  17:44:51.233896	1.144358E-1	3.989455E-3	6.099443E-3	4.525373E-3	5.250703E-4	1.485982E-3	3.766030E-3	7.487682E-3
10/19/2017  17:44:51.234896	2.467808E-1	5.855987E-5	1.525283E-2	5.370320E-3	8.665474E-5	7.222162E-3	1.883855E-3	2.135784E-3
10/19/2017  17:44:51.235896	3.785652E-1	4.556254E-4	4.345136E-3	7.326887E-3	5.750252E-3	3.906416E-3	5.161477E-3	7.921057E-3
10/19/2017  17:44:51.236896	3.616301E-1	5.136651E-3	8.220882E-5	2.258553E-3	7.362001E-3	7.510371E-3	7.281288E-3	6.771209E-3
10/19/2017  17:44:51.237896	2.093332E-2	7.982064E-3	2.878355E-3	1.206732E-4	5.187341E-3	3.741109E-3	1.683628E-3	1.053063E-2
10/19/2017  17:44:51.238896	9.216299E-2	1.443927E-3	4.179739E-4	2.964421E-3	2.329733E-3	9.026199E-3	5.016964E-3	4.212848E-3
10/19/2017  17:44:51.239896	1.781461E-1	1.454244E-2	4.907496E-3	6.581313E-3	2.237484E-3	6.162889E-3	5.388660E-3	8.074186E-3
10/19/2017  17:44:51.240896	1.023435E-1	1.104407E-2	5.220162E-3	3.231742E-4	1.612075E-2	1.056074E-4	3.318314E-3	9.438809E-4
10/19/2017  17:44:51.241896	2.975471E-1	1.958101E-3	1.097500E-3	5.438670E-3	1.190589E-2	4.031355E-3	2.256900E-3	5.494175E-3
10/19/2017  17:44:51.242896	1.078429E+0	4.293036E-3	1.038219E-3	7.598541E-3	1.901725E-3	3.793699E-3	4.863812E-4	7.027128E-3
10/19/2017  17:44:51.243896	3.828848E-1	5.386940E-3	2.157490E-3	9.693581E-4	4.390577E-3	1.699033E-3	8.056491E-3	1.886570E-3
								
10/19/2017  17:44:51.244896	6.497212E-3	9.526317E-3	4.507544E-3	3.911022E-3	3.688494E-3	7.056405E-3	6.055924E-3	5.181458E-3
10/19/2017  17:44:51.245896	2.987911E-1	2.869573E-3	1.454853E-2	1.385764E-3	5.046941E-3	2.203394E-3	2.272994E-3	1.519503E-2
10/19/2017  17:44:51.246896	3.839199E-1	6.344969E-3	5.017923E-3	1.519049E-3	4.882664E-4	5.709643E-3	3.768649E-3	7.650811E-3
10/19/2017  17:44:51.247896	4.221738E-1	1.464030E-5	5.277218E-3	2.782536E-3	6.209914E-3	1.338603E-3	2.342590E-3	1.500400E-2
10/19/2017  17:44:51.248896	4.332381E-1	1.794924E-3	8.545232E-4	1.081897E-2	1.767520E-3	2.463470E-3	3.198760E-3	5.848942E-3
10/19/2017  17:44:51.249896	7.352709E-2	1.335226E-3	6.514979E-3	9.769841E-3	1.138204E-3	3.134548E-3	6.375179E-4	1.218272E-2
10/19/2017  17:44:51.250896	2.963222E-1	1.229388E-3	8.593489E-3	2.446168E-3	2.835505E-3	3.770050E-4	5.009625E-3	3.000077E-3
10/19/2017  17:44:51.251896	1.945286E-1	8.803688E-3	9.072938E-3	1.168968E-2	1.615283E-3	6.677371E-3	1.310360E-3	6.081146E-3
10/19/2017  17:44:51.252896	7.517110E-3	5.936799E-3	9.492321E-3	7.726723E-3	5.284852E-3	5.993790E-3	5.016571E-3	6.531815E-3
10/19/2017  17:44:51.253896	1.442638E-1	2.620777E-3	1.861385E-3	1.045045E-3	1.020594E-3	4.752096E-3	1.593765E-3	6.274323E-3
10/19/2017  17:44:51.254896	5.343695E-1	9.464570E-3	5.352486E-3	8.964997E-4	5.713428E-3	4.923654E-3	3.577091E-3	2.401343E-3
10/19/2017  17:44:51.255896	4.319477E-1	1.008553E-2	2.663521E-3	2.752102E-3	4.649860E-3	1.048162E-2	1.459810E-3	1.524906E-3
10/19/2017  17:44:51.256896	6.114217E-2	6.170067E-4	3.320445E-3	1.557766E-2	1.435085E-3	1.510925E-2	7.568651E-3	1.151012E-3
10/19/2017  17:44:51.257896	2.135347E-2	4.966228E-3	4.597748E-3	1.001894E-2	9.272368E-4	5.566800E-3	1.550977E-3	1.262410E-2
10/19/2017  17:44:51.258896	1.676014E-1	1.931374E-3	5.054881E-3	1.092040E-2	1.740409E-3	2.786676E-3	5.027807E-3	1.346860E-2
10/19/2017  17:44:51.259896	3.008065E-1	1.400709E-2	5.120700E-3	5.470203E-3	3.235917E-3	6.265419E-3	3.263146E-3	6.333173E-3
10/19/2017  17:44:51.260896	1.766004E-1	4.513630E-3	2.919394E-3	2.927390E-3	7.824363E-3	8.741148E-3	7.503872E-5	6.628923E-3
10/19/2017  17:44:51.261896	7.330396E-2	2.128381E-3	4.693371E-3	1.890852E-4	6.141287E-3	2.767219E-3	4.067720E-3	2.034127E-3
10/19/2017  17:44:51.262896	1.324233E-1	4.249933E-3	6.915270E-3	4.090687E-3	1.019309E-2	7.537474E-3	2.096488E-3	8.922749E-3
10/19/2017  17:44:51.263896	2.959116E-1	5.055963E-3	6.382188E-3	1.138871E-4	6.252466E-3	8.238378E-3	3.375618E-3	3.173241E-3
10/19/2017  17:44:51.264896	1.194109E-1	1.052500E-2	1.937745E-3	6.332724E-3	2.017169E-4	7.221545E-3	2.512249E-3	5.559619E-3
10/19/2017  17:44:51.265896	5.203953E-2	6.839804E-3	8.764778E-3	2.971854E-4	4.120153E-3	1.200719E-2	7.762529E-3	2.298305E-3
10/19/2017  17:44:51.266896	4.767217E-1	7.217032E-4	7.929008E-3	6.364793E-3	1.071179E-4	3.246198E-3	1.708849E-3	8.037637E-3
10/19/2017  17:44:51.267896	3.289327E-1	1.126203E-2	3.593964E-3	9.476966E-3	2.420219E-3	4.363878E-3	2.548688E-3	7.760910E-3
10/19/2017  17:44:51.268896	7.432983E-1	3.755350E-3	5.283076E-3	7.528023E-3	2.190261E-3	2.657427E-3	3.111851E-3	1.060987E-3
10/19/2017  17:44:51.269896	4.943000E-1	3.106012E-3	3.819013E-3	3.381410E-3	1.238758E-3	1.327786E-3	3.789438E-4	3.898365E-4
10/19/2017  17:44:51.270896	1.589921E-1	4.992701E-3	1.707698E-2	8.528886E-3	9.258627E-3	7.627519E-3	8.658088E-3	6.020569E-3
10/19/2017  17:44:51.271896	7.855071E-1	7.524355E-3	2.347480E-3	8.829016E-3	6.808815E-4	5.498642E-3	4.924881E-3	7.328905E-3
10/19/2017  17:44:51.272896	4.423071E-1	3.623986E-4	4.181502E-3	5.922791E-3	1.073537E-2	9.399755E-4	7.870969E-3	2.654060E-3
10/19/2017  17:44:51.273896	3.441205E-1	1.699414E-4	1.032299E-3	8.594716E-3	6.078986E-3	8.515253E-4	3.107514E-3	2.719469E-3
10/19/2017  17:44:51.274896	9.325529E-2	2.578563E-3	1.079554E-3	2.421462E-3	3.852071E-3	5.210805E-3	7.109289E-5	3.300926E-3
10/19/2017  17:44:51.275896	9.244788E-1	1.917944E-3	1.076284E-3	8.859929E-4	3.878509E-3	5.570555E-3	3.962278E-3	7.431314E-3
10/19/2017  17:44:51.276896	7.459623E-1	5.386596E-3	9.564438E-4	6.204072E-3	3.699474E-3	2.343873E-4	1.923315E-3	3.494771E-3
								
10/19/2017  17:44:51.277896	2.010725E-2	6.889703E-3	2.041868E-3	3.917752E-3	1.192841E-2	2.576214E-4	5.371004E-3	4.824212E-3
10/19/2017  17:44:51.278896	9.486112E-1	3.739169E-3	5.535311E-3	2.774343E-4	1.222517E-2	3.402514E-3	6.956959E-3	7.525407E-4
10/19/2017  17:44:51.279896	6.662503E-1	2.645717E-3	5.725110E-3	4.883158E-3	2.044788E-3	6.678691E-3	7.857751E-3	3.872216E-3
10/19/2017  17:44:51.280896	1.394923E-1	6.436635E-3	4.656352E-3	3.297975E-3	4.307010E-3	4.287665E-3	8.345104E-3	8.295504E-3
10/19/2017  17:44:51.281896	1.940058E-1	7.675055E-3	2.610237E-3	3.962283E-3	1.023703E-2	1.590705E-3	1.556302E-2	3.819699E-3
10/19/2017  17:44:51.282896	2.088731E-1	1.538577E-3	1.483232E-2	8.023877E-3	6.223272E-3	3.096015E-3	9.388437E-3	1.063048E-3
10/19/2017  17:44:51.283896	3.328491E-2	1.048221E-2	5.819611E-3	1.420990E-2	8.837182E-4	8.179724E-3	1.970208E-3	1.393731E-3
10/19/2017  17:44:51.284896	2.929485E-1	1.040867E-3	6.060919E-3	9.347113E-3	7.252635E-3	3.003445E-4	8.679707E-3	4.056581E-4
10/19/2017  17:44:51.285896	4.515671E-1	3.174509E-3	2.916608E-4	1.034739E-3	1.433445E-3	8.647708E-3	3.608650E-3	7.307617E-3
10/19/2017  17:44:51.286896	1.544320E-1	4.190569E-3	2.145659E-3	2.615772E-3	4.569490E-3	4.522907E-3	6.912048E-3	9.238550E-3
10/19/2017  17:44:51.287896	4.252382E-1	5.565656E-3	5.035454E-3	7.410605E-3	5.990713E-3	1.458410E-4	3.727517E-4	6.713035E-3
10/19/2017  17:44:51.288896	2.436426E-1	9.027167E-4	3.704082E-3	4.904164E-3	2.002761E-3	2.636303E-3	3.652425E-3	6.595956E-3
10/19/2017  17:44:51.289896	3.629840E-1	1.271157E-2	3.153107E-3	3.112964E-3	4.643560E-3	1.796709E-3	8.173131E-3	1.905022E-3
10/19/2017  17:44:51.290896	4.220362E-1	4.687848E-3	3.001036E-3	2.167335E-3	4.256496E-3	2.261390E-3	3.277202E-3	7.182244E-3
10/19/2017  17:44:51.291896	6.143478E-2	6.860232E-3	3.369920E-3	1.136306E-3	9.398756E-3	9.713172E-3	6.023948E-3	1.822142E-3
10/19/2017  17:44:51.292896	5.169711E-1	4.182612E-4	9.083158E-3	3.679458E-3	4.275411E-3	6.224729E-3	8.419826E-4	9.117802E-3
10/19/2017  17:44:51.293896	1.502299E+0	5.327700E-3	1.628484E-5	1.600257E-3	1.719466E-3	1.045804E-2	8.984080E-3	3.297767E-3
10/19/2017  17:44:51.294896	6.258788E-1	7.384969E-3	6.376221E-3	4.589835E-3	1.119560E-2	2.155409E-4	6.783484E-3	6.733249E-3
10/19/2017  17:44:51.295896	8.840833E-1	1.757814E-2	7.647893E-3	4.100990E-3	3.865418E-3	2.266490E-2	1.880881E-3	5.641638E-3
10/19/2017  17:44:51.296896	1.472215E+0	3.466293E-3	8.354496E-3	1.512603E-2	5.170625E-3	5.662317E-3	1.125804E-2	3.328020E-3
10/19/2017  17:44:51.297896	8.116112E-2	1.493578E-3	3.548960E-3	9.413198E-3	6.420635E-3	8.743368E-3	1.700268E-3	1.256744E-2
10/19/2017  17:44:51.298896	3.170199E-1	3.566203E-3	5.619986E-3	5.618335E-3	7.232793E-3	3.982635E-3	3.594374E-3	1.082239E-2
10/19/2017  17:44:51.299896	5.489244E-1	8.277431E-3	2.635086E-3	9.248923E-3	9.191270E-3	1.214978E-3	3.464444E-3	4.205559E-3
10/19/2017  17:44:51.300896	3.063474E-1	1.678296E-3	5.561437E-3	4.060614E-4	5.625855E-4	3.741438E-3	2.572407E-3	6.289997E-3
10/19/2017  17:44:51.301896	5.457227E-1	5.781681E-3	4.213382E-3	1.223492E-2	5.296189E-3	4.469746E-3	2.130603E-3	2.238891E-3
10/19/2017  17:44:51.302896	9.912082E-1	4.057386E-3	4.882680E-3	3.678015E-3	2.349265E-4	5.026117E-4	5.695496E-3	1.563613E-3
10/19/2017  17:44:51.303896	2.584863E-1	3.947610E-4	6.034209E-3	1.120103E-2	6.392243E-3	2.013988E-3	3.365521E-3	9.991315E-4
10/19/2017  17:44:51.304896	3.678994E-1	3.244377E-3	4.257430E-3	7.108169E-3	1.830998E-3	2.565257E-3	2.405991E-3	8.487069E-3
10/19/2017  17:44:51.305896	7.005673E-1	2.841308E-3	2.785879E-3	7.638184E-3	5.203953E-3	4.871003E-3	1.791033E-3	5.735984E-3
10/19/2017  17:44:51.306896	4.764416E-1	9.480960E-3	3.578522E-3	6.820264E-3	2.877973E-3	5.005277E-3	3.272019E-3	8.029308E-3
10/19/2017  17:44:51.307896	1.232905E-1	7.930262E-3	3.638781E-3	1.209769E-3	7.471215E-3	6.008785E-4	2.089485E-3	7.429365E-4
10/19/2017  17:44:51.308896	1.118659E+0	1.402423E-2	6.757072E-3	3.725033E-3	5.470471E-4	6.195598E-3	1.188883E-3	1.817308E-3
10/19/2017  17:44:51.309896	1.182079E+0	3.421214E-3	1.059970E-2	6.949839E-3	9.582060E-3	2.134660E-3	5.459511E-3	1.241705E-3
								
10/19/2017  17:44:51.310896	4.628567E-1	3.831084E-3	1.788243E-2	4.255725E-3	3.845049E-4	8.991976E-3	5.018232E-3	3.201494E-3
10/19/2017  17:44:51.311896	1.925934E-1	1.220872E-2	3.159350E-4	3.868925E-3	5.179713E-3	1.361413E-2	2.155396E-4	6.334646E-3
10/19/2017  17:44:51.312896	5.327385E-1	4.893972E-3	1.955151E-2	6.208015E-4	2.007605E-3	1.027655E-2	8.820602E-3	4.355690E-3
10/19/2017  17:44:51.313896	2.543685E-1	4.182200E-3	2.321665E-3	5.303010E-3	6.360715E-3	8.748975E-3	1.641633E-3	2.534931E-3
10/19/2017  17:44:51.314896	3.886640E-1	1.559427E-3	5.557940E-3	3.662157E-3	3.438424E-3	2.269082E-4	2.900294E-3	1.153035E-3
10/19/2017  17:44:51.315896	1.287271E-2	5.932094E-3	2.945168E-3	1.093672E-2	8.929208E-3	3.491932E-4	8.518113E-3	7.807962E-3
10/19/2017  17:44:51.316896	5.940390E-2	6.165221E-3	5.888048E-3	3.501785E-3	5.717732E-3	2.730747E-3	4.704978E-3	4.593854E-3
10/19/2017  17:44:51.317896	2.949616E-1	2.050586E-4	2.862790E-3	2.015344E-3	1.078749E-2	5.969994E-3	2.180340E-3	1.859112E-3
10/19/2017  17:44:51.318896	4.588638E-1	3.875165E-3	4.342262E-5	8.545211E-4	4.054709E-3	4.549923E-3	2.363616E-3	2.228432E-3
10/19/2017  17:44:51.319896	1.704094E-1	4.785367E-6	3.619494E-3	5.988348E-3	2.072087E-2	6.098614E-4	2.390437E-3	9.514326E-3
10/19/2017  17:44:51.320896	1.012086E+0	5.533468E-3	6.503518E-3	2.999082E-4	9.097036E-3	7.841665E-3	4.281360E-3	5.901903E-3
10/19/2017  17:44:51.321896	5.467697E-1	3.649009E-3	6.162118E-3	2.106657E-3	1.074490E-2	3.676639E-3	9.075717E-3	4.858781E-3
10/19/2017  17:44:51.322896	2.359612E-1	1.079555E-3	6.216844E-4	6.955700E-3	4.876003E-3	2.464921E-3	6.763918E-3	1.076829E-3
10/19/2017  17:44:51.323896	5.941340E-1	5.469146E-3	2.776849E-3	6.759676E-3	1.138555E-3	6.442371E-3	7.127732E-5	7.284822E-3
10/19/2017  17:44:51.324896	7.357074E-2	3.708739E-3	2.097033E-3	1.459047E-2	3.269940E-3	7.113023E-4	1.020564E-2	4.267807E-3
10/19/2017  17:44:51.325896	3.408487E-1	2.274407E-3	5.111608E-3	5.938748E-3	3.421282E-4	5.104631E-3	4.519227E-3	4.903177E-3
10/19/2017  17:44:51.326896	3.057274E-1	1.131750E-3	2.887103E-3	6.080284E-3	4.543202E-3	4.569238E-3	1.269498E-3	3.976774E-3
10/19/2017  17:44:51.327896	1.003309E-1	5.715702E-3	9.476798E-3	3.475242E-4	7.269317E-3	1.946303E-3	2.741426E-3	3.164261E-3
10/19/2017  17:44:51.328896	6.385574E-1	2.523873E-3	5.399554E-3	6.230410E-3	2.177244E-3	7.806185E-3	2.843208E-3	8.394106E-3
10/19/2017  17:44:51.329896	4.824772E-1	6.711823E-4	1.813697E-3	8.722408E-3	1.377612E-2	1.274135E-3	1.539362E-2	8.319065E-4
10/19/2017  17:44:51.330896	1.398650E-1	6.582488E-3	7.989872E-3	8.541136E-4	2.423701E-3	2.752625E-3	7.094956E-4	2.843356E-5
10/19/2017  17:44:51.331896	1.597588E-1	2.362715E-3	6.344404E-4	4.651751E-3	6.237372E-3	1.250331E-2	2.562557E-3	1.427303E-3
10/19/2017  17:44:51.332896	3.693409E-2	1.160277E-2	1.009676E-2	3.437256E-3	2.071619E-3	6.662744E-4	4.481037E-3	4.019185E-3
10/19/2017  17:44:51.333896	2.186327E-1	7.785539E-3	5.697740E-3	8.074095E-3	6.622066E-3	1.077864E-2	2.358275E-3	8.857320E-3
10/19/2017  17:44:51.334896	1.791792E-1	1.301583E-2	9.624899E-3	1.855720E-3	1.267091E-2	6.916259E-3	5.210181E-3	1.004580E-2
10/19/2017  17:44:51.335896	7.811787E-1	6.941290E-3	6.271895E-3	5.852671E-3	1.339850E-3	1.995553E-2	5.431563E-3	4.092861E-3
10/19/2017  17:44:51.336896	4.781191E-1	1.855105E-2	8.265391E-3	9.775341E-3	7.780646E-3	5.682230E-4	6.872339E-3	4.405749E-4
10/19/2017  17:44:51.337896	1.113900E-1	6.035990E-3	8.336668E-3	7.562703E-4	1.299055E-3	1.753178E-2	4.167345E-3	5.802093E-3
10/19/2017  17:44:51.338896	3.617115E-1	4.750816E-3	1.049723E-2	3.261186E-3	9.221518E-3	3.193319E-3	1.054133E-2	6.887838E-3
10/19/2017  17:44:51.339896	3.862299E-1	2.333925E-3	5.261138E-3	5.360944E-3	5.217180E-3	1.890882E-3	4.528093E-3	1.883542E-3
10/19/2017  17:44:51.340896	1.166440E-1	3.608724E-3	4.327691E-3	7.920229E-3	3.254791E-4	5.112162E-3	9.440695E-3	5.061632E-3
10/19/2017  17:44:51.341896	1.187427E-1	5.007377E-3	1.739492E-3	1.141268E-2	4.349811E-3	1.079054E-3	1.630112E-3	1.493143E-3
10/19/2017  17:44:51.342896	8.481848E-2	5.339191E-4	4.104533E-3	1.482377E-3	2.836115E-3	3.122146E-3	3.344894E-3	9.418333E-3
								
10/19/2017  17:44:51.343896	3.794740E-2	2.112188E-3	5.657775E-4	1.341034E-3	2.361836E-3	1.318140E-3	9.790445E-3	4.513963E-3
10/19/2017  17:44:51.344896	1.734128E-1	3.528153E-3	4.680356E-3	4.769590E-3	2.636468E-3	4.415136E-5	3.087378E-3	2.664776E-3
10/19/2017  17:44:51.345896	1.928041E-3	2.027361E-3	9.486614E-3	1.589939E-2	3.415076E-3	1.295276E-2	4.840330E-3	7.418026E-4
10/19/2017  17:44:51.346896	2.246275E-2	7.118637E-3	1.532032E-3	1.687920E-2	2.488139E-3	2.097029E-4	3.560765E-3	2.801795E-3
10/19/2017  17:44:51.347896	9.655906E-2	5.810272E-3	3.594269E-3	7.696410E-3	3.557511E-5	2.276433E-3	4.471915E-3	1.832842E-3
10/19/2017  17:44:51.348896	4.382206E-1	4.793504E-3	1.139798E-2	3.453557E-3	4.480642E-3	6.569378E-4	1.369889E-3	9.244622E-4
10/19/2017  17:44:51.349896	9.715511E-1	9.356613E-4	3.365068E-3	6.536327E-3	5.095333E-3	2.398057E-3	3.108097E-3	9.396731E-3
10/19/2017  17:44:51.350896	1.741001E-1	5.076527E-4	6.145199E-3	9.746544E-3	9.526924E-3	3.223227E-3	4.440045E-3	3.161811E-3
10/19/2017  17:44:51.351896	1.034438E+0	7.731695E-3	5.706597E-3	5.297635E-3	4.344580E-3	2.594523E-3	7.215687E-4	1.064917E-2
10/19/2017  17:44:51.352896	8.477499E-1	3.952947E-3	7.126551E-3	2.243950E-3	1.541693E-3	6.318205E-6	1.605281E-3	3.655045E-3
10/19/2017  17:44:51.353896	9.614217E-2	1.677874E-2	5.490865E-3	3.303435E-4	9.778638E-4	1.549109E-3	3.108454E-3	6.091681E-3
10/19/2017  17:44:51.354896	2.822543E-1	8.831727E-3	1.001894E-2	3.267882E-3	5.554406E-3	8.247571E-3	2.605120E-4	1.094456E-2
10/19/2017  17:44:51.355896	2.472542E-1	9.803990E-3	1.302856E-4	1.284993E-2	1.015995E-3	1.243733E-2	3.137172E-4	2.430287E-3
10/19/2017  17:44:51.356896	2.224470E-1	1.477780E-3	6.414338E-3	2.383591E-3	5.912302E-3	6.098542E-3	6.281476E-3	3.074767E-3
10/19/2017  17:44:51.357896	2.590690E-1	3.861583E-3	2.230629E-3	1.149270E-2	3.646059E-3	3.566855E-4	6.528279E-4	2.544243E-4
10/19/2017  17:44:51.358896	2.968025E-1	3.080698E-3	9.242525E-3	5.985102E-3	1.005929E-2	5.617222E-3	2.923166E-3	3.421957E-3
10/19/2017  17:44:51.359896	1.271270E-1	4.930608E-3	5.387781E-3	1.021627E-2	1.499574E-3	8.626464E-3	2.109401E-3	2.695742E-3
10/19/2017  17:44:51.360896	1.283555E-1	6.507242E-3	4.029101E-3	8.080053E-3	9.957736E-3	2.498611E-3	6.502082E-3	4.280266E-3
10/19/2017  17:44:51.361896	2.195145E-1	9.061812E-3	3.038287E-3	1.386499E-3	1.873321E-3	9.321873E-3	2.838384E-3	7.036991E-3
10/19/2017  17:44:51.362896	1.100830E-2	3.859067E-3	2.970415E-3	8.864776E-3	3.040683E-3	8.734408E-4	4.393823E-3	7.133499E-4
10/19/2017  17:44:51.363896	4.964982E-1	3.685442E-3	1.144181E-2	1.563194E-2	3.752312E-3	1.738320E-3	2.972303E-3	4.439625E-3
10/19/2017  17:44:51.364896	7.333561E-1	1.969250E-3	1.364454E-3	3.256650E-3	6.189282E-3	1.018298E-2	2.793284E-3	1.485941E-2
10/19/2017  17:44:51.365896	4.401844E-1	4.727434E-3	1.078721E-3	7.431619E-4	9.717066E-3	1.484666E-3	6.093046E-3	3.446449E-3
10/19/2017  17:44:51.366896	8.340887E-1	3.555235E-3	1.173732E-3	7.253940E-4	9.050647E-3	1.462901E-3	4.411773E-3	2.074839E-3
10/19/2017  17:44:51.367896	6.743468E-1	3.654867E-3	3.543068E-3	4.564910E-3	3.781682E-3	5.096436E-3	3.474781E-3	6.919951E-3
10/19/2017  17:44:51.368896	1.455799E-1	2.408227E-4	1.136271E-4	5.502230E-3	1.939890E-4	7.990376E-4	9.917243E-3	8.770582E-4
10/19/2017  17:44:51.369896	2.524556E-1	5.334453E-3	1.189762E-2	4.327886E-3	6.167655E-5	1.593054E-2	5.106293E-3	7.752166E-3
10/19/2017  17:44:51.370896	1.116805E-1	7.729094E-3	6.619874E-5	6.063981E-3	7.714365E-3	7.165668E-3	9.987332E-3	6.516062E-3
10/19/2017  17:44:51.371896	1.576593E-1	7.056432E-3	1.951342E-2	3.928130E-3	8.301806E-3	1.068502E-2	1.661212E-4	1.140380E-2
10/19/2017  17:44:51.372896	3.581628E-2	9.883028E-3	9.726406E-3	7.710422E-3	1.451900E-3	1.984496E-4	1.223221E-4	1.520536E-3
10/19/2017  17:44:51.373896	9.785297E-2	3.440679E-3	3.255267E-3	7.814889E-3	8.343545E-4	5.002860E-3	2.075996E-3	4.599280E-3
10/19/2017  17:44:51.374896	4.074893E-1	9.510419E-3	1.091227E-3	5.325115E-3	3.866872E-3	1.636509E-3	2.901415E-3	1.385990E-4
10/19/2017  17:44:51.375896	8.540065E-2	2.545838E-3	1.885228E-4	3.067682E-3	4.395160E-3	1.040941E-2	3.682452E-3	3.137007E-3
								
10/19/2017  17:44:51.376896	4.922388E-1	7.810107E-3	5.163326E-3	9.998937E-3	7.695720E-3	1.322240E-2	2.193103E-3	8.744553E-3
10/19/2017  17:44:51.377896	2.387074E-1	4.648687E-3	6.070995E-3	4.916184E-3	2.405980E-3	2.698374E-3	7.610035E-3	6.536899E-3
10/19/2017  17:44:51.378896	3.651582E-2	2.048939E-3	6.093665E-3	1.165683E-2	1.106717E-2	1.935611E-3	1.746579E-3	5.300233E-3
10/19/2017  17:44:51.379896	7.452570E-1	6.367222E-3	1.510475E-3	8.670398E-3	2.952843E-4	7.404862E-3	7.350641E-3	1.194798E-2
10/19/2017  17:44:51.380896	8.834560E-1	8.479594E-3	1.528485E-3	1.404263E-2	1.636208E-2	4.468820E-3	1.853941E-3	1.499139E-3
10/19/2017  17:44:51.381896	2.405557E-1	2.986731E-3	1.354052E-3	1.139786E-3	9.515144E-4	5.767869E-3	5.350160E-3	3.092197E-3
10/19/2017  17:44:51.382896	2.381626E-1	5.790220E-3	5.188814E-3	6.260418E-3	1.155966E-2	3.578790E-3	4.956768E-3	4.286890E-3
10/19/2017  17:44:51.383896	4.496018E-2	8.944099E-3	3.110359E-3	3.265713E-3	1.039395E-3	1.002326E-2	3.120612E-3	4.339973E-3
10/19/2017  17:44:51.384896	7.255110E-1	7.111378E-3	4.423586E-3	2.949231E-3	3.530426E-3	4.547309E-3	5.766302E-3	1.533095E-4
10/19/2017  17:44:51.385896	3.005519E-1	6.768473E-3	2.626282E-3	3.381345E-3	3.161916E-5	3.164894E-3	9.129710E-3	5.046090E-3
10/19/2017  17:44:51.386896	3.554940E-2	6.815465E-3	1.270220E-2	7.123586E-3	4.096788E-3	2.066376E-3	2.472626E-3	2.475669E-4
10/19/2017  17:44:51.387896	1.877395E-1	1.671245E-3	1.038652E-3	5.000526E-3	2.151873E-4	7.750408E-4	1.055047E-2	2.636155E-3
10/19/2017  17:44:51.388896	4.300122E-1	5.289771E-3	1.538809E-2	1.256359E-3	3.735223E-3	1.546535E-3	2.433437E-3	1.022794E-2
10/19/2017  17:44:51.389896	4.078550E-2	2.857283E-3	5.181971E-3	8.127551E-4	3.434614E-3	2.817945E-3	3.661534E-3	3.969305E-3
10/19/2017  17:44:51.390896	7.837263E-2	7.538646E-3	1.427277E-3	4.180052E-4	7.197962E-3	5.283526E-3	7.012016E-3	2.328087E-3
10/19/2017  17:44:51.391896	1.331713E-1	4.332445E-3	8.905299E-3	7.639569E-5	7.166227E-3	2.315379E-4	9.005351E-3	4.893225E-3
10/19/2017  17:44:51.392896	1.600171E-1	1.351487E-3	9.610434E-3	1.779392E-3	5.444685E-3	1.493592E-2	4.533487E-3	1.088528E-3
10/19/2017  17:44:51.393896	3.870745E-1	8.457388E-3	2.207404E-3	5.695719E-4	3.353491E-3	6.903779E-3	5.497306E-3	6.730390E-4
10/19/2017  17:44:51.394896	3.966137E-1	1.234895E-2	6.468857E-3	3.378904E-4	6.465189E-3	1.865500E-2	5.105989E-3	4.332396E-3
10/19/2017  17:44:51.395896	5.084850E-1	8.097341E-3	6.814321E-3	8.941359E-3	4.223048E-3	1.273716E-3	7.651145E-3	1.830782E-3
10/19/2017  17:44:51.396896	2.145546E-1	5.223175E-3	1.035891E-2	4.497246E-3	4.401990E-3	1.140932E-2	2.885813E-3	6.456838E-3
10/19/2017  17:44:51.397896	1.853194E-2	1.020729E-3	1.238856E-2	2.970719E-4	3.902296E-3	1.391045E-3	1.218977E-2	7.076296E-3
10/19/2017  17:44:51.398896	2.744872E-1	2.736000E-3	5.252675E-3	1.032822E-2	2.648477E-3	1.202633E-3	1.727912E-3	8.342384E-4
10/19/2017  17:44:51.399896	1.009048E+0	3.480199E-3	1.668437E-3	4.056890E-3	1.157200E-2	1.041087E-3	1.024185E-2	5.010561E-3
10/19/2017  17:44:51.400896	8.785478E-1	4.643011E-4	7.826335E-3	1.646784E-2	4.135281E-3	1.087385E-3	6.607144E-4	5.877819E-3
10/19/2017  17:44:51.401896	3.253296E-1	9.608563E-4	1.053732E-3	3.494999E-3	2.421893E-3	7.717736E-3	7.455397E-4	1.997429E-2
10/19/2017  17:44:51.402896	1.740877E-1	1.291843E-3	3.562651E-3	2.351028E-2	7.942814E-3	9.491603E-3	2.740492E-3	7.243594E-3
10/19/2017  17:44:51.403896	2.789614E-1	1.142116E-2	2.036278E-3	1.224664E-2	5.704618E-3	2.806182E-3	1.712184E-3	7.492057E-3
10/19/2017  17:44:51.404896	6.369799E-1	5.321643E-3	5.126931E-3	2.843234E-3	4.101487E-3	1.881511E-4	1.097129E-3	2.873686E-3
10/19/2017  17:44:51.405896	6.470124E-1	1.703573E-2	1.109982E-3	3.831050E-3	3.333322E-4	8.575114E-3	7.596535E-4	5.101079E-3
10/19/2017  17:44:51.406896	3.169891E-2	9.388801E-3	1.433566E-3	2.033181E-3	1.107582E-2	3.021280E-3	1.243274E-2	1.637777E-3
10/19/2017  17:44:51.407896	1.190444E-1	4.956678E-3	1.109087E-2	1.340394E-3	2.648367E-3	9.094074E-5	5.533213E-3	3.407137E-3
10/19/2017  17:44:51.408896	5.074525E-3	9.101651E-5	1.719305E-3	3.376987E-3	8.806894E-3	1.963996E-3	2.178022E-3	3.757077E-3
								
10/19/2017  17:44:51.409896	5.866889E-2	4.877708E-3	1.027536E-2	2.387789E-3	9.372280E-4	5.066711E-3	9.921201E-3	4.189986E-3
10/19/2017  17:44:51.410896	4.137829E-2	1.744392E-2	2.785561E-3	5.578267E-3	4.811989E-3	6.903557E-3	2.268052E-4	6.687010E-3
10/19/2017  17:44:51.411896	1.679945E-1	6.464429E-3	4.040068E-3	4.952654E-3	3.279097E-3	8.604520E-3	2.517822E-3	6.385513E-3
10/19/2017  17:44:51.412896	2.831900E-1	6.715633E-3	6.109702E-3	2.966909E-3	5.992196E-3	2.568434E-3	2.187873E-4	2.095124E-3
10/19/2017  17:44:51.413896	1.927670E-2	7.579556E-3	5.750163E-3	8.515409E-3	9.484284E-4	3.161524E-3	1.876819E-4	7.047942E-3
10/19/2017  17:44:51.414896	8.021675E-2	1.435456E-2	1.077993E-3	6.757440E-3	1.118826E-2	4.790533E-3	4.466877E-3	2.621025E-3
10/19/2017  17:44:51.415896	4.792953E-1	6.169216E-4	1.300226E-3	1.098256E-2	5.508962E-3	9.239876E-3	3.234962E-3	1.039296E-2
10/19/2017  17:44:51.416896	1.617983E-1	7.847688E-3	4.527505E-3	1.034529E-3	1.916197E-2	6.862665E-3	1.625467E-3	7.672667E-3
10/19/2017  17:44:51.417896	2.731967E-1	4.282986E-3	6.427616E-3	2.967753E-4	1.435871E-2	1.785105E-3	3.565396E-3	3.927692E-3
10/19/2017  17:44:51.418896	3.098539E-2	8.361575E-3	7.253423E-4	4.189386E-3	1.773385E-2	2.881898E-3	7.444804E-3	2.743545E-3
10/19/2017  17:44:51.419896	7.736836E-1	4.495376E-3	6.688245E-3	1.426931E-3	7.795799E-3	6.736298E-3	2.542099E-3	1.773934E-3
10/19/2017  17:44:51.420896	1.137260E-1	3.886992E-3	9.475649E-3	2.748166E-3	2.778560E-3	6.052628E-3	6.552226E-3	4.971315E-3
10/19/2017  17:44:51.421896	5.277456E-1	4.948242E-3	4.669706E-3	2.058917E-2	4.538421E-3	1.044725E-3	1.474435E-3	3.557342E-3
10/19/2017  17:44:51.422896	4.447151E-1	8.023870E-3	1.348113E-3	7.033978E-3	1.401018E-3	6.177944E-3	3.754332E-3	6.518998E-3
10/19/2017  17:44:51.423896	1.388889E-1	7.203992E-3	1.196630E-3	7.535333E-3	2.936064E-3	8.068500E-3	1.321329E-3	3.745097E-3
10/19/2017  17:44:51.424896	5.158084E-1	3.974172E-3	6.951970E-3	5.266314E-3	6.361733E-3	3.514211E-3	7.649220E-3	2.337587E-3
10/19/2017  17:44:51.425896	8.591813E-1	5.402498E-3	2.084142E-4	6.517551E-3	5.584737E-4	1.601944E-3	4.422197E-3	9.872917E-3
10/19/2017  17:44:51.426896	4.541177E-1	3.401115E-3	1.263697E-2	4.876716E-3	1.168496E-3	6.493262E-3	2.059970E-3	3.974564E-4
10/19/2017  17:44:51.427896	8.103040E-1	6.584417E-3	4.806769E-3	5.475624E-3	3.955438E-3	3.197427E-3	1.989168E-3	7.488023E-4
10/19/2017  17:44:51.428896	1.613348E+0	1.980370E-3	5.063673E-3	5.323493E-3	7.165669E-3	3.006774E-3	3.867603E-3	4.991390E-3
10/19/2017  17:44:51.429896	9.215858E-1	8.912595E-3	5.268491E-3	3.308781E-3	1.472764E-2	4.718679E-3	6.724056E-3	2.035861E-3
10/19/2017  17:44:51.430896	2.700277E-2	7.815890E-4	2.782718E-3	4.006298E-4	8.409819E-4	1.930734E-2	9.940482E-5	4.288699E-3
10/19/2017  17:44:51.431896	1.078886E-1	3.681530E-4	5.390161E-3	2.642067E-3	5.777151E-3	3.536533E-3	6.265820E-3	5.362920E-3
10/19/2017  17:44:51.432896	3.054936E-1	1.106822E-2	1.604288E-3	1.830026E-3	2.667757E-3	9.403678E-3	2.510378E-3	3.564153E-3
10/19/2017  17:44:51.433896	1.807423E-1	1.326940E-3	1.895439E-3	6.763573E-3	5.574549E-3	4.268918E-3	5.689860E-3	1.206819E-4
10/19/2017  17:44:51.434896	4.467448E-1	1.120619E-3	2.028963E-3	6.441631E-4	1.214860E-3	1.216456E-3	6.828947E-3	5.186831E-5
10/19/2017  17:44:51.435896	1.159724E-1	6.430150E-3	4.022768E-3	1.119409E-2	3.348955E-3	5.516511E-3	8.036598E-3	2.042290E-4
10/19/2017  17:44:51.436896	5.249975E-1	9.926542E-4	8.913851E-3	7.261796E-3	1.573584E-3	1.146279E-3	2.425925E-3	7.617939E-3
10/19/2017  17:44:51.437896	1.483244E+0	1.612675E-3	2.881267E-3	8.665016E-5	7.590331E-3	5.657671E-3	7.278040E-3	1.155210E-2
10/19/2017  17:44:51.438896	7.791338E-1	3.601734E-9	8.262891E-5	1.458148E-2	4.514941E-3	8.596971E-3	4.616560E-3	1.921306E-2
10/19/2017  17:44:51.439896	2.952016E-1	3.139431E-3	3.833269E-3	4.102816E-3	5.824524E-3	5.308350E-4	5.421033E-3	1.252918E-2
10/19/2017  17:44:51.440896	2.828368E-1	6.878698E-3	4.259194E-3	8.822606E-3	2.310687E-3	1.052121E-2	1.116115E-3	6.902501E-4
10/19/2017  17:44:51.441896	4.574780E-1	3.351418E-3	4.890834E-3	6.070992E-3	3.036282E-3	4.102891E-4	9.592110E-3	1.075890E-2
								
10/19/2017  17:44:51.442896	7.010212E-1	2.696744E-3	5.118430E-3	4.095697E-3	2.864655E-3	7.815705E-3	4.689953E-3	7.973750E-3
10/19/2017  17:44:51.443896	6.999783E-1	8.171901E-3	3.200671E-3	1.002118E-2	1.026131E-2	5.823554E-3	3.097515E-3	5.187545E-3
10/19/2017  17:44:51.444896	5.045101E-1	6.733843E-3	6.020108E-3	2.211502E-3	6.133734E-3	7.670116E-3	2.124522E-3	3.171570E-3
10/19/2017  17:44:51.445896	1.239692E+0	6.849398E-3	1.076085E-2	5.547473E-3	1.646105E-3	9.880962E-3	1.121463E-3	5.993726E-3
10/19/2017  17:44:51.446896	1.164890E+0	6.683669E-3	8.624978E-5	2.885678E-3	7.244739E-3	4.157425E-3	1.155788E-2	6.826924E-3
10/19/2017  17:44:51.447896	1.480221E-1	5.920480E-3	1.845347E-2	3.791170E-3	3.982300E-3	3.972432E-4	9.657380E-3	6.106532E-3
10/19/2017  17:44:51.448896	8.967699E-1	3.049509E-3	2.111272E-3	9.979570E-3	5.423166E-4	3.964590E-3	1.868308E-3	8.863169E-3
10/19/2017  17:44:51.449896	9.363609E-1	3.101099E-3	1.223940E-2	1.513727E-3	3.582360E-3	4.278814E-3	9.054112E-3	1.267465E-3
10/19/2017  17:44:51.450896	1.016529E+0	2.724360E-3	2.067272E-3	1.184413E-2	2.254684E-3	7.904716E-3	1.060562E-3	4.261988E-4
10/19/2017  17:44:51.451896	4.790569E-1	2.341532E-3	1.666683E-3	9.830932E-4	3.665927E-3	7.261718E-3	3.241680E-3	1.014178E-2
10/19/2017  17:44:51.452896	2.367360E-1	7.976544E-3	1.278708E-3	7.802873E-3	7.760751E-3	2.075755E-3	4.319490E-3	2.254183E-3
10/19/2017  17:44:51.453896	3.249226E-1	8.472961E-3	9.139658E-4	6.481837E-3	1.991176E-3	5.640886E-3	5.963654E-4	2.872243E-4
10/19/2017  17:44:51.454896	2.806146E-1	1.929812E-3	1.408108E-3	4.961941E-3	1.183039E-2	6.743224E-4	6.184410E-3	2.197831E-3
10/19/2017  17:44:51.455896	4.253190E-1	7.746263E-3	3.252208E-3	5.593424E-3	1.227818E-3	8.478641E-3	4.984371E-3	5.514989E-3
10/19/2017  17:44:51.456896	4.917402E-1	5.355003E-3	5.747768E-3	5.461223E-3	4.784735E-3	1.144532E-2	1.142200E-2	9.694624E-4
10/19/2017  17:44:51.457896	1.990644E-2	2.934574E-3	9.294890E-3	2.807417E-3	8.305447E-5	2.642557E-3	1.158528E-2	9.268812E-4
10/19/2017  17:44:51.458896	1.653051E-1	1.077320E-2	2.207258E-3	5.175081E-3	9.177818E-3	1.103131E-2	1.289811E-3	5.093062E-3
10/19/2017  17:44:51.459896	4.343873E-1	1.797585E-3	4.995660E-3	1.022042E-2	7.973653E-3	4.777964E-4	7.096354E-3	3.736385E-3
10/19/2017  17:44:51.460896	8.427957E-3	5.358803E-4	3.823184E-3	3.401889E-3	3.504666E-3	1.002336E-2	1.958852E-3	9.012528E-3
10/19/2017  17:44:51.461896	1.332026E-1	4.155525E-3	1.001827E-3	3.200531E-4	4.253244E-3	8.405741E-3	1.131154E-2	6.082044E-3
10/19/2017  17:44:51.462896	9.386019E-1	3.231553E-3	9.214708E-3	9.587949E-3	5.656249E-3	9.819289E-4	3.983266E-3	6.947215E-3
10/19/2017  17:44:51.463896	2.691321E-1	6.022453E-4	5.539715E-4	1.289163E-2	1.190178E-3	8.615531E-3	9.076602E-3	6.910669E-3
10/19/2017  17:44:51.464896	1.699094E+0	6.943918E-3	5.420519E-4	5.726689E-3	2.784754E-4	3.509232E-3	2.566266E-3	2.256805E-3
10/19/2017  17:44:51.465896	2.120131E+0	7.870640E-4	2.511718E-3	3.302569E-3	1.608535E-3	6.700440E-3	4.832579E-4	6.827120E-3
10/19/2017  17:44:51.466896	1.062933E+0	5.262489E-3	6.447173E-3	4.679671E-3	4.160930E-3	5.873267E-3	2.289012E-3	4.143157E-3
10/19/2017  17:44:51.467896	6.091338E-1	8.662945E-3	2.673790E-3	1.209970E-3	4.786963E-3	1.033407E-3	8.325250E-4	8.433072E-3
10/19/2017  17:44:51.468896	1.801654E+0	9.522855E-5	1.166296E-4	9.408810E-4	3.966233E-3	1.203775E-2	2.703435E-3	1.797916E-3
10/19/2017  17:44:51.469896	1.500618E+0	1.303009E-2	2.593019E-3	4.065218E-3	7.168747E-3	2.969159E-3	2.350454E-3	8.047272E-3
10/19/2017  17:44:51.470896	1.139659E-1	1.017593E-2	1.925343E-3	3.464116E-3	4.919987E-4	9.679669E-4	7.720428E-4	6.678491E-3
10/19/2017  17:44:51.471896	1.202983E-1	2.156993E-2	6.266066E-4	5.828956E-4	1.671333E-3	7.382150E-3	6.532840E-4	2.975217E-3
10/19/2017  17:44:51.472896	2.273632E-1	5.370278E-3	1.873428E-3	9.424748E-3	1.124080E-3	1.256800E-3	5.462863E-4	1.469824E-2
10/19/2017  17:44:51.473896	8.812998E-4	2.392619E-3	9.199547E-3	1.283202E-2	1.290091E-3	3.567096E-3	5.510854E-3	5.356676E-3
10/19/2017  17:44:51.474896	4.028519E-2	6.754846E-3	7.942100E-4	3.778201E-3	1.313190E-3	8.184193E-3	3.297498E-3	5.195052E-3
								
10/19/2017  17:44:51.475896	1.951033E-2	3.381313E-3	1.052269E-2	6.169375E-3	3.235070E-3	1.763531E-3	1.042451E-2	3.389965E-3
10/19/2017  17:44:51.476896	1.423900E-1	9.516554E-3	7.355027E-3	7.746198E-3	2.242470E-3	5.788490E-3	4.119005E-3	4.384785E-3
10/19/2017  17:44:51.477896	2.720808E-1	1.363399E-3	1.590403E-3	1.194448E-2	4.610116E-3	6.160365E-3	2.732689E-3	1.530486E-2
10/19/2017  17:44:51.478896	2.187486E-1	2.280505E-4	6.192955E-3	1.087814E-2	5.588557E-3	1.116159E-3	3.428569E-4	6.016633E-3
10/19/2017  17:44:51.479896	5.008131E-2	9.299138E-3	6.485188E-3	8.892843E-3	1.305298E-3	1.584929E-3	4.171046E-3	1.462944E-2
10/19/2017  17:44:51.480896	2.557043E-1	1.471013E-4	2.091283E-3	1.832907E-2	5.483606E-3	1.723439E-4	1.874749E-3	6.064079E-4
10/19/2017  17:44:51.481896	5.001563E-2	7.392075E-3	1.160987E-3	9.465189E-3	2.811261E-3	8.500947E-4	1.468556E-3	1.662992E-4
10/19/2017  17:44:51.482896	2.781636E-1	6.703267E-3	2.406443E-3	1.694821E-3	7.583909E-3	3.471664E-3	1.115968E-3	7.389764E-4
10/19/2017  17:44:51.483896	2.455686E-1	1.477973E-2	3.125463E-3	1.262388E-3	2.881685E-4	4.804528E-3	1.173313E-3	1.138076E-3
10/19/2017  17:44:51.484896	2.309664E-1	7.579482E-3	2.325495E-3	9.852250E-4	7.530291E-4	1.190554E-3	4.424750E-3	7.352143E-3
10/19/2017  17:44:51.485896	6.473029E-2	2.712048E-3	1.223884E-2	2.269399E-4	4.831761E-3	4.795926E-3	4.009906E-3	1.419527E-3
10/19/2017  17:44:51.486896	6.966875E-1	1.042592E-2	8.024830E-3	4.294757E-3	1.954753E-3	4.465338E-3	2.884230E-3	6.613801E-3
10/19/2017  17:44:51.487896	5.326818E-1	5.299048E-4	1.981265E-2	7.097585E-4	1.239041E-4	1.689119E-3	3.931763E-3	8.820825E-3
10/19/2017  17:44:51.488896	2.055316E-1	4.587384E-3	2.730615E-3	3.537817E-3	7.066851E-3	1.032259E-2	1.789928E-3	3.560237E-3
10/19/2017  17:44:51.489896	9.488307E-1	8.841250E-3	1.039453E-2	4.170876E-3	3.261463E-3	8.888461E-3	5.154773E-3	5.966065E-3
10/19/2017  17:44:51.490896	1.324930E+0	1.042971E-2	5.763131E-3	1.247021E-2	4.720449E-3	1.068259E-2	1.234515E-3	5.244510E-3
10/19/2017  17:44:51.491896	6.702711E-1	2.525420E-3	3.129396E-3	1.360004E-2	1.115181E-2	3.144814E-4	9.127583E-4	3.731714E-3
10/19/2017  17:44:51.492896	1.092136E-1	1.418326E-3	1.079051E-2	1.041938E-2	2.025939E-3	9.122070E-3	4.093502E-3	8.954153E-3
10/19/2017  17:44:51.493896	1.581346E-1	7.389950E-3	2.379187E-3	1.445833E-2	8.059199E-3	2.109935E-4	6.344611E-3	4.601578E-3
10/19/2017  17:44:51.494896	7.202840E-1	5.819775E-3	7.021497E-3	4.426412E-3	1.481311E-2	1.897775E-3	6.204940E-3	3.445646E-3
10/19/2017  17:44:51.495896	8.635514E-1	5.379165E-3	3.788687E-3	1.216787E-2	6.684547E-3	7.222161E-3	1.520503E-3	8.016260E-3
10/19/2017  17:44:51.496896	3.899361E-1	5.421967E-3	2.061048E-3	6.942508E-4	1.343856E-2	5.799212E-3	7.536512E-3	5.958934E-3
10/19/2017  17:44:51.497896	6.020823E-1	5.620775E-3	5.209720E-3	1.438947E-3	3.528577E-3	7.253405E-3	3.494699E-3	2.115583E-3
10/19/2017  17:44:51.498896	2.646122E-1	8.695658E-3	5.206830E-3	4.558612E-3	3.533432E-3	1.051000E-2	3.904061E-3	5.601914E-3
10/19/2017  17:44:51.499896	3.764452E-1	1.320240E-3	6.907214E-4	2.009654E-3	6.870734E-3	2.507692E-3	4.252896E-3	2.721870E-3
10/19/2017  17:44:51.500896	2.938449E-1	1.437490E-3	4.205952E-3	1.953042E-3	7.001017E-4	2.662147E-3	9.681020E-4	2.397696E-3
10/19/2017  17:44:51.501896	2.061580E-1	3.437231E-3	8.931246E-4	1.814316E-3	3.095676E-3	5.612540E-3	1.071942E-3	6.641898E-4
10/19/2017  17:44:51.502896	3.836079E-1	1.585604E-3	4.785404E-3	2.361785E-3	8.885693E-3	1.101826E-2	1.660499E-4	4.465286E-3
10/19/2017  17:44:51.503896	1.452398E-2	9.450098E-3	4.711061E-3	1.129620E-2	1.419791E-3	2.194341E-3	1.835952E-2	3.607949E-3
10/19/2017  17:44:51.504896	6.071331E-1	6.347882E-4	1.773398E-2	1.330708E-3	5.326192E-3	7.510651E-3	5.915107E-3	3.698114E-3
10/19/2017  17:44:51.505896	2.717852E-1	5.111540E-3	1.034231E-4	1.020729E-3	1.004313E-3	9.043161E-3	1.038149E-2	1.802886E-3
10/19/2017  17:44:51.506896	2.457797E-1	9.879953E-3	1.709154E-2	4.766887E-3	5.717271E-3	7.679152E-3	5.725630E-3	6.355986E-3
10/19/2017  17:44:51.507896	1.446323E-2	1.691369E-3	3.981593E-3	9.297955E-3	5.256262E-3	7.357040E-3	8.941957E-4	1.149309E-2
								
10/19/2017  17:44:51.508896	7.270288E-2	2.586039E-3	5.467765E-4	2.948984E-3	3.716751E-4	6.500057E-3	6.883610E-3	3.518475E-3
10/19/2017  17:44:51.509896	3.068228E-1	1.168830E-3	3.414228E-3	1.024621E-2	8.190467E-4	6.625735E-3	1.928560E-3	1.671241E-3
10/19/2017  17:44:51.510896	2.032196E-1	3.442991E-3	9.987419E-4	2.177273E-3	2.342668E-3	9.788503E-3	7.311376E-3	4.678759E-3
10/19/2017  17:44:51.511896	1.290071E-1	1.394789E-3	3.521224E-3	4.329099E-3	1.208797E-2	3.078214E-3	3.605814E-3	9.878872E-3
10/19/2017  17:44:51.512896	1.278253E-1	1.174079E-2	8.791900E-3	2.119124E-3	3.943782E-3	8.793275E-3	3.953806E-3	2.046214E-3
10/19/2017  17:44:51.513896	3.868178E-2	6.694723E-3	7.567618E-4	3.944508E-3	5.356500E-3	2.405751E-3	8.199620E-3	1.228960E-3
10/19/2017  17:44:51.514896	5.502713E-1	7.116569E-3	5.365588E-3	7.457211E-4	1.476105E-3	5.012095E-3	1.019590E-3	3.332481E-3
10/19/2017  17:44:51.515896	7.459986E-1	1.116080E-3	2.533186E-3	1.267320E-3	9.563803E-3	5.882105E-3	8.546834E-3	4.189001E-3
10/19/2017  17:44:51.516896	8.577832E-1	1.435674E-3	3.571207E-3	1.156471E-2	1.628696E-3	8.073634E-3	7.601761E-3	1.510297E-3
10/19/2017  17:44:51.517896	4.235091E-1	5.572994E-3	1.150371E-3	6.299435E-3	3.458541E-3	3.304191E-3	4.880447E-3	2.824977E-3
10/19/2017  17:44:51.518896	8.902771E-1	1.663787E-3	2.288969E-3	3.676241E-3	3.388017E-4	3.925661E-3	7.477811E-4	6.846330E-4
10/19/2017  17:44:51.519896	7.638727E-1	1.117703E-3	3.939420E-3	1.681697E-3	2.449348E-3	5.012576E-5	1.907254E-3	4.836769E-3
10/19/2017  17:44:51.520896	1.443264E-1	6.690766E-4	7.517601E-3	7.453596E-3	2.425063E-3	6.544699E-3	2.557496E-3	6.950936E-3
10/19/2017  17:44:51.521896	3.129499E-1	3.667160E-3	5.084963E-3	1.180693E-2	5.116565E-3	5.961568E-3	4.962596E-3	4.478683E-3
10/19/2017  17:44:51.522896	3.369873E-1	3.980695E-3	7.082895E-3	1.272923E-2	7.787310E-3	1.098304E-2	8.748392E-3	8.032657E-4
10/19/2017  17:44:51.523896	7.493310E-1	6.195829E-3	5.538314E-3	3.762852E-3	7.051151E-3	1.302350E-2	1.684911E-3	9.802908E-5
10/19/2017  17:44:51.524896	3.777928E-1	2.061362E-3	4.087272E-3	6.433458E-3	8.019022E-3	4.748268E-3	8.035470E-3	7.216716E-4
10/19/2017  17:44:51.525896	3.081019E-1	4.910315E-3	2.134922E-3	6.065889E-3	1.485482E-3	6.658635E-3	1.291322E-3	5.089988E-3
10/19/2017  17:44:51.526896	6.112308E-1	9.777930E-3	4.440707E-3	8.104153E-4	9.191984E-3	4.982302E-3	4.917359E-3	6.372011E-4
10/19/2017  17:44:51.527896	4.116207E-1	7.897339E-3	6.267764E-3	7.073310E-3	9.488271E-4	1.965810E-2	7.702564E-3	2.072794E-3
10/19/2017  17:44:51.528896	5.034055E-2	5.893127E-3	1.092496E-2	9.561691E-3	5.138196E-3	9.119638E-3	1.072378E-2	3.242534E-3
10/19/2017  17:44:51.529896	1.498397E-1	1.399099E-2	4.818466E-3	7.624060E-4	3.263918E-3	1.405283E-2	2.470435E-3	5.726548E-3
10/19/2017  17:44:51.530896	2.472830E-1	9.057438E-3	1.421793E-3	2.916266E-3	1.975184E-4	4.146757E-3	4.501974E-3	1.310683E-3
10/19/2017  17:44:51.531896	3.984281E-1	7.716633E-4	1.212687E-3	3.117780E-3	2.327381E-3	2.994082E-3	1.474348E-3	3.565675E-3
10/19/2017  17:44:51.532896	3.120774E-2	1.204229E-3	9.349115E-4	1.109553E-2	7.409884E-3	4.002809E-3	4.118014E-4	8.616593E-3
10/19/2017  17:44:51.533896	5.336163E-1	1.734946E-3	7.736801E-5	1.086739E-3	1.786031E-3	2.207466E-4	6.526131E-3	1.096844E-3
10/19/2017  17:44:51.534896	4.674074E-1	3.419424E-3	2.547891E-3	6.831993E-3	1.588359E-2	3.779969E-3	4.242069E-3	9.016538E-3
10/19/2017  17:44:51.535896	5.327367E-1	1.689866E-4	2.014513E-3	2.282591E-3	5.254314E-3	4.804705E-4	7.501731E-3	4.856276E-3
10/19/2017  17:44:51.536896	4.170437E-1	3.819847E-3	1.566784E-3	5.710807E-3	5.846491E-3	5.163984E-3	3.400105E-5	1.483146E-2
10/19/2017  17:44:51.537896	1.353581E-1	2.086286E-3	7.954748E-4	1.125751E-2	8.209182E-3	2.299180E-3	4.593757E-3	6.497869E-3
10/19/2017  17:44:51.538896	2.851407E-1	5.532513E-3	1.862840E-3	8.411312E-3	1.057768E-3	1.411788E-3	1.054901E-3	1.515626E-2
10/19/2017  17:44:51.539896	3.881421E-1	1.132613E-3	4.605266E-3	5.813261E-3	3.336198E-3	9.614325E-3	7.765861E-4	7.895466E-4
10/19/2017  17:44:51.540896	4.706411E-1	2.649315E-4	5.870717E-3	2.797647E-4	2.299357E-3	2.163483E-3	1.473397E-3	4.489376E-3
								
10/19/2017  17:44:51.541896	6.277998E-2	2.353051E-3	1.691199E-4	7.004681E-6	3.567460E-3	7.744716E-4	1.250859E-3	3.229027E-4
10/19/2017  17:44:51.542896	1.178294E+0	2.171092E-3	1.831871E-3	2.135753E-3	1.674220E-5	2.483845E-3	7.898468E-4	2.320005E-3
10/19/2017  17:44:51.543896	1.667781E+0	9.256308E-3	6.490955E-4	6.738621E-3	2.176965E-3	3.253921E-3	8.345873E-3	4.181846E-3
10/19/2017  17:44:51.544896	3.547715E-1	5.315135E-4	1.609770E-2	2.409162E-3	6.664413E-4	6.438090E-4	1.360633E-4	4.247636E-3
10/19/2017  17:44:51.545896	4.877323E-1	8.484408E-3	3.114669E-3	1.674142E-4	1.646002E-3	3.068844E-3	5.061473E-3	1.112787E-3
10/19/2017  17:44:51.546896	4.241772E-1	3.392926E-3	1.072321E-2	2.264162E-3	6.877809E-3	1.030802E-2	5.913120E-3	4.842443E-3
10/19/2017  17:44:51.547896	2.806217E-1	6.402114E-3	7.465681E-3	3.526573E-3	6.171035E-4	2.160493E-3	3.986390E-3	7.954227E-3
10/19/2017  17:44:51.548896	9.037089E-1	4.308227E-3	4.068177E-3	7.889788E-3	5.253258E-3	3.134992E-4	6.317303E-3	1.107903E-2
10/19/2017  17:44:51.549896	1.904404E-1	3.452170E-3	6.820373E-3	1.706997E-3	9.659564E-3	2.439229E-4	6.101056E-3	2.073792E-3
10/19/2017  17:44:51.550896	3.859762E-1	5.849667E-3	1.021460E-4	1.239174E-2	5.440979E-4	6.149327E-4	1.383050E-3	6.090689E-3
10/19/2017  17:44:51.551896	4.677496E-1	1.917718E-2	4.362903E-3	2.064546E-3	5.149900E-3	4.809514E-3	1.716024E-3	1.251014E-4
10/19/2017  17:44:51.552896	8.747607E-2	3.151202E-3	1.392068E-3	3.996070E-4	5.935761E-3	4.938370E-3	1.548841E-3	5.262239E-4
10/19/2017  17:44:51.553896	2.782323E-1	2.679388E-3	7.992749E-4	1.815296E-3	1.684704E-3	3.460118E-3	3.361603E-3	4.777423E-3
10/19/2017  17:44:51.554896	1.624312E-1	4.199752E-3	7.605377E-3	1.540727E-3	9.867485E-3	2.362588E-3	2.206865E-3	9.858426E-4
10/19/2017  17:44:51.555896	6.732326E-1	5.179390E-3	3.936607E-3	2.452262E-3	4.074566E-3	1.499395E-3	6.855429E-4	7.540923E-3
10/19/2017  17:44:51.556896	2.003460E-1	3.544010E-3	2.717095E-3	1.134134E-2	1.889401E-3	5.126757E-3	3.986110E-4	2.066281E-3
10/19/2017  17:44:51.557896	5.641653E-1	4.610125E-3	8.209194E-3	5.169974E-3	4.546823E-3	1.290778E-3	2.164178E-3	1.150415E-2
10/19/2017  17:44:51.558896	1.619508E-1	3.131718E-3	3.865303E-3	1.477864E-2	2.010650E-3	5.149203E-3	1.021373E-3	1.156497E-3
10/19/2017  17:44:51.559896	3.007278E-1	8.329082E-3	3.009397E-3	8.734123E-3	5.937237E-3	1.071154E-3	1.812399E-3	1.477937E-2
10/19/2017  17:44:51.560896	3.557947E-1	5.636761E-4	1.724945E-3	1.844158E-2	1.361276E-4	8.396303E-3	7.392317E-3	1.217829E-2
10/19/2017  17:44:51.561896	2.226528E-1	1.230293E-2	7.528557E-3	9.242776E-3	1.833238E-4	1.940006E-3	1.177763E-2	5.701706E-3
10/19/2017  17:44:51.562896	2.404712E-1	8.798890E-3	4.510408E-3	6.477135E-3	8.361240E-3	1.616071E-2	3.490724E-3	6.775834E-3
10/19/2017  17:44:51.563896	2.156938E-1	1.087818E-2	5.798635E-3	9.408348E-3	5.406276E-3	2.518228E-3	4.607025E-3	4.121305E-3
10/19/2017  17:44:51.564896	5.932492E-2	1.291120E-2	1.672732E-3	1.377344E-2	3.385813E-3	5.801960E-3	1.102465E-2	4.411842E-3
10/19/2017  17:44:51.565896	1.140198E-1	5.437950E-3	2.963750E-3	3.044128E-3	4.154207E-3	4.656803E-3	4.243230E-4	1.862827E-3
10/19/2017  17:44:51.566896	1.284495E-1	2.086480E-3	2.486953E-3	4.941793E-3	5.586634E-3	2.634657E-3	1.547045E-2	3.572612E-4
10/19/2017  17:44:51.567896	1.996929E-2	8.291011E-3	3.392302E-4	1.047344E-2	9.648781E-4	4.879599E-3	1.365777E-3	7.555948E-3
10/19/2017  17:44:51.568896	2.549269E-1	8.018400E-3	5.330299E-6	9.097062E-3	4.915841E-3	1.102763E-3	5.463882E-3	6.808835E-3
10/19/2017  17:44:51.569896	6.174677E-1	3.148018E-3	1.746472E-3	2.530100E-3	8.846681E-4	2.680932E-3	2.757849E-3	1.310306E-2
10/19/2017  17:44:51.570896	6.374301E-1	9.769237E-3	2.584061E-3	5.426530E-3	2.935676E-4	1.387836E-3	1.514727E-3	1.011710E-2
10/19/2017  17:44:51.571896	2.386038E-1	3.164987E-3	7.666329E-4	5.294684E-3	5.832577E-3	5.540594E-3	3.435552E-3	2.522673E-3
10/19/2017  17:44:51.572896	1.069596E+0	1.096062E-2	6.505216E-3	4.543668E-3	1.136463E-2	5.281932E-3	5.727416E-3	4.096768E-3
10/19/2017  17:44:51.573896	5.960088E-1	5.087892E-3	8.423444E-3	2.127441E-3	4.902253E-3	7.367228E-3	4.727230E-3	7.070187E-4
								
10/19/2017  17:44:51.574896	7.729640E-1	3.573064E-3	5.144856E-3	3.608768E-3	1.552433E-3	3.455599E-3	1.239782E-2	4.513956E-3
10/19/2017  17:44:51.575896	6.175238E-1	2.656905E-3	5.021279E-3	4.848459E-3	3.428484E-3	1.757846E-3	6.488180E-5	1.604178E-3
10/19/2017  17:44:51.576896	5.518656E-1	8.111676E-5	1.529262E-3	3.166493E-3	1.684976E-3	3.484705E-3	5.637888E-3	6.902112E-4
10/19/2017  17:44:51.577896	9.081475E-1	2.910338E-4	1.459276E-3	2.186652E-3	7.345893E-3	2.430559E-3	1.145284E-2	2.038298E-3
10/19/2017  17:44:51.578896	3.548850E-1	4.515153E-3	6.764067E-4	1.324933E-3	3.783302E-3	4.394331E-3	1.016445E-3	3.808510E-4
10/19/2017  17:44:51.579896	9.513193E-1	7.168818E-4	4.081067E-3	8.667899E-3	3.703835E-3	5.801853E-3	4.584187E-3	6.209428E-3
10/19/2017  17:44:51.580896	6.632302E-1	4.272424E-3	4.613360E-3	9.588132E-3	7.892356E-3	4.351248E-4	7.594652E-3	6.218616E-3
10/19/2017  17:44:51.581896	6.924417E-1	2.001170E-3	4.629756E-4	2.042146E-3	1.034299E-2	6.208064E-3	7.564564E-3	3.226590E-3
10/19/2017  17:44:51.582896	1.289520E-1	6.278013E-3	7.729692E-3	8.924611E-3	2.659532E-3	8.777105E-3	2.163746E-4	8.964099E-3
10/19/2017  17:44:51.583896	3.312814E-1	1.772636E-2	8.625550E-3	2.747226E-3	8.245241E-3	3.181142E-3	2.341373E-3	1.719058E-3
10/19/2017  17:44:51.584896	1.451558E-1	2.997107E-3	1.000275E-2	5.440047E-3	1.882836E-3	8.567877E-3	1.715904E-3	8.694929E-4
10/19/2017  17:44:51.585896	1.571901E-2	5.458994E-4	7.961366E-3	1.403806E-4	7.992890E-3	9.352176E-4	2.809014E-3	1.613249E-3
10/19/2017  17:44:51.586896	4.962422E-1	8.644171E-3	1.757282E-3	9.795715E-4	4.938276E-3	4.665746E-3	2.645500E-3	1.092378E-2
10/19/2017  17:44:51.587896	2.940712E-1	2.782834E-3	1.640344E-3	4.552699E-3	5.592480E-3	3.475792E-3	3.736502E-3	1.036983E-2
10/19/2017  17:44:51.588896	3.300748E-1	3.176036E-3	5.453603E-3	1.665434E-3	7.518981E-3	5.754946E-3	3.948547E-3	8.569784E-3
10/19/2017  17:44:51.589896	2.487079E-1	6.810444E-4	6.784201E-4	4.134023E-3	4.055971E-3	8.365875E-4	3.643649E-4	9.272655E-3
10/19/2017  17:44:51.590896	2.134699E-1	3.183568E-3	1.590218E-3	8.757664E-3	2.874869E-3	6.338262E-3	5.810061E-3	6.542292E-3
10/19/2017  17:44:51.591896	1.087018E-1	4.502682E-3	5.159858E-3	1.961754E-3	1.199937E-2	1.019766E-2	2.960969E-3	1.658191E-3
10/19/2017  17:44:51.592896	5.188620E-1	3.026743E-3	3.138543E-3	4.342180E-3	6.107777E-3	6.339408E-3	2.160983E-3	3.528322E-3
10/19/2017  17:44:51.593896	1.613944E+0	6.540290E-4	3.934058E-3	4.196727E-3	1.278551E-2	3.988789E-3	6.423214E-3	3.532412E-3
10/19/2017  17:44:51.594896	3.325878E-1	6.869891E-3	1.191094E-2	2.889899E-3	6.207380E-3	1.914359E-3	4.938208E-3	4.969078E-4
10/19/2017  17:44:51.595896	1.290297E+0	3.901240E-3	5.415523E-3	9.456965E-4	2.740444E-3	7.580231E-3	3.564166E-3	4.965493E-3
10/19/2017  17:44:51.596896	1.433537E+0	2.172032E-3	5.586789E-3	6.352144E-3	4.007229E-3	2.773810E-3	1.534243E-3	8.188332E-3
10/19/2017  17:44:51.597896	4.066339E-1	3.088914E-3	3.147131E-3	4.246933E-3	3.567857E-3	4.352936E-4	1.503465E-3	3.697360E-4
10/19/2017  17:44:51.598896	5.729460E-1	5.836012E-5	1.270451E-3	1.044895E-2	1.179281E-4	3.583252E-3	5.245843E-3	1.038725E-2
10/19/2017  17:44:51.599896	7.291631E-1	4.158492E-3	1.867199E-3	2.854115E-3	8.357030E-3	3.210389E-4	6.881724E-3	2.021805E-3
10/19/2017  17:44:51.600896	3.916502E-1	2.620911E-4	6.058177E-3	8.943848E-3	1.396576E-3	4.740733E-3	7.659941E-3	5.385096E-3
10/19/2017  17:44:51.601896	4.530466E-1	4.204233E-3	4.488442E-3	1.087673E-2	9.302180E-3	1.070616E-3	1.257676E-2	8.392537E-3
10/19/2017  17:44:51.602896	1.980976E-1	6.188735E-4	3.171048E-3	4.350495E-3	4.669530E-3	5.238656E-3	1.954338E-3	1.953197E-3
10/19/2017  17:44:51.603896	3.117628E-1	3.809105E-4	1.003714E-2	2.167296E-3	6.783833E-3	9.339337E-3	4.737041E-3	1.232218E-2
10/19/2017  17:44:51.604896	1.567546E-1	9.721949E-3	2.716682E-3	2.811020E-3	6.176854E-4	5.313796E-4	3.549221E-3	4.117510E-3
10/19/2017  17:44:51.605896	6.222380E-2	3.013711E-3	1.037943E-2	1.114964E-3	9.186273E-3	5.368580E-3	2.311469E-3	1.233312E-3
10/19/2017  17:44:51.606896	2.690295E-1	8.652764E-3	2.186090E-3	6.089073E-3	2.337493E-3	5.547175E-3	4.666237E-3	3.735908E-4
								
10/19/2017  17:44:51.607896	3.061347E-1	8.543110E-3	5.046533E-3	4.667658E-3	8.300992E-4	6.113073E-3	7.387293E-3	8.182982E-3
10/19/2017  17:44:51.608896	5.560424E-1	6.231042E-3	9.497006E-4	5.370317E-3	4.705944E-3	5.348916E-3	4.054656E-3	5.274478E-3
10/19/2017  17:44:51.609896	4.177345E-1	9.867024E-3	4.534371E-3	1.259596E-3	5.341772E-3	1.791783E-2	6.452772E-3	8.944513E-4
10/19/2017  17:44:51.610896	4.597083E-1	1.493873E-2	5.666174E-3	9.431273E-3	6.959985E-3	2.002520E-3	2.447005E-3	5.369479E-3
10/19/2017  17:44:51.611896	9.617708E-1	1.288391E-3	3.413702E-3	6.768344E-3	3.823813E-3	2.204328E-3	4.130145E-3	4.681173E-3
10/19/2017  17:44:51.612896	1.155011E+0	7.463178E-4	6.290619E-3	4.030455E-3	8.517015E-3	2.689955E-4	2.277008E-3	2.245698E-3
10/19/2017  17:44:51.613896	7.583024E-1	1.840105E-4	4.264795E-3	7.812277E-3	2.622592E-3	9.132973E-3	4.096274E-3	1.234185E-2
10/19/2017  17:44:51.614896	4.413695E-1	8.618923E-4	5.627334E-3	2.786842E-3	2.816729E-3	2.156715E-3	3.059232E-3	3.432597E-3
10/19/2017  17:44:51.615896	1.018785E+0	6.641389E-4	3.184475E-3	7.281362E-3	1.919202E-3	2.851707E-3	2.868383E-3	8.391051E-3
10/19/2017  17:44:51.616896	4.906112E-1	2.581409E-3	6.518698E-4	7.567323E-3	7.168993E-3	7.000186E-3	8.273514E-3	8.910563E-3
10/19/2017  17:44:51.617896	1.203948E-1	8.425741E-3	3.005304E-3	8.759486E-3	2.327286E-3	1.039624E-2	8.446197E-4	1.155273E-2
10/19/2017  17:44:51.618896	9.828934E-1	7.277217E-3	4.207211E-3	6.133712E-3	4.018643E-3	6.499460E-3	5.829673E-3	7.074756E-3
10/19/2017  17:44:51.619896	1.273648E+0	2.115383E-3	2.554024E-3	2.078759E-2	2.737528E-3	1.035077E-2	4.518845E-3	2.396029E-3
10/19/2017  17:44:51.620896	9.550034E-1	3.758934E-3	7.330335E-4	1.883154E-3	1.712390E-3	1.213113E-2	4.325082E-4	1.850513E-3
10/19/2017  17:44:51.621896	4.128664E-1	6.442642E-3	5.223469E-3	1.398631E-2	4.895397E-3	1.167459E-3	6.154705E-3	7.805731E-3
10/19/2017  17:44:51.622896	2.079355E-1	1.485606E-3	8.262255E-3	2.542943E-3	7.637366E-3	7.291313E-3	3.039857E-4	2.833583E-3
10/19/2017  17:44:51.623896	4.284310E-1	7.719856E-3	6.784114E-3	7.195796E-4	1.334530E-3	4.452004E-4	2.398431E-4	4.997818E-3
10/19/2017  17:44:51.624896	5.149019E-1	7.101221E-4	5.604333E-3	4.655553E-3	1.265750E-2	4.173029E-3	5.792087E-3	2.255453E-3
10/19/2017  17:44:51.625896	1.754445E-1	1.674407E-3	6.489031E-3	3.347609E-3	3.661093E-3	5.214150E-5	3.030302E-3	1.260563E-2
10/19/2017  17:44:51.626896	3.822167E-1	1.002885E-3	8.471405E-3	1.663594E-5	1.345037E-2	1.645093E-2	8.178268E-3	5.871371E-3
10/19/2017  17:44:51.627896	3.304720E-1	1.043881E-2	2.874765E-3	1.915668E-3	2.267224E-3	2.919703E-3	1.407837E-3	4.815919E-3
10/19/2017  17:44:51.628896	5.093605E-1	4.752444E-3	9.342124E-4	3.061404E-3	8.359185E-4	4.672605E-3	1.241491E-3	9.805603E-4
10/19/2017  17:44:51.629896	9.094305E-1	2.205441E-3	3.312396E-3	9.782963E-3	8.686421E-3	3.408519E-3	2.889390E-3	4.052969E-4
10/19/2017  17:44:51.630896	3.657088E-1	1.175899E-2	2.582453E-3	3.058817E-3	5.287181E-3	5.591659E-3	2.892026E-3	4.020194E-3
10/19/2017  17:44:51.631896	8.514353E-2	3.309908E-3	1.981029E-3	8.769196E-3	7.363578E-3	3.428816E-3	1.219085E-2	5.548564E-3
10/19/2017  17:44:51.632896	6.195510E-1	4.207983E-3	4.989810E-4	7.516851E-3	1.040082E-4	8.693336E-3	5.171509E-3	4.841961E-3
10/19/2017  17:44:51.633896	4.164335E-1	1.487976E-3	3.894902E-3	3.263665E-5	7.871004E-4	2.835436E-3	7.399925E-3	2.149623E-3
10/19/2017  17:44:51.634896	2.687693E-1	6.770263E-3	4.647873E-4	2.640749E-3	5.235017E-3	1.692914E-3	3.882478E-3	1.035150E-2
10/19/2017  17:44:51.635896	6.077953E-1	6.941141E-4	1.218311E-3	1.869009E-3	2.425462E-3	8.468059E-4	4.478292E-3	1.138583E-2
10/19/2017  17:44:51.636896	1.009463E-1	1.365055E-3	5.659990E-3	2.027959E-2	8.212738E-4	3.728752E-3	4.220574E-4	6.345027E-3
10/19/2017  17:44:51.637896	1.048192E+0	1.796049E-3	8.000902E-3	1.442477E-2	4.320749E-3	2.170948E-3	2.149689E-3	6.764471E-3
10/19/2017  17:44:51.638896	1.109065E+0	2.026916E-3	6.398134E-3	2.657668E-2	1.149570E-3	2.936039E-3	7.535125E-3	2.452210E-3
10/19/2017  17:44:51.639896	1.581650E-2	8.057812E-3	1.071463E-2	3.475413E-4	3.133091E-3	1.028585E-3	1.837696E-3	4.400974E-3
								
10/19/2017  17:44:51.640896	4.151826E-1	9.011960E-4	3.586639E-3	1.001265E-3	3.910002E-3	4.352405E-3	5.458388E-3	5.750194E-3
10/19/2017  17:44:51.641896	2.164080E-1	8.266715E-3	1.889489E-3	4.495351E-3	8.123108E-3	5.362624E-3	7.877210E-4	3.435892E-3
10/19/2017  17:44:51.642896	2.466248E-1	5.985142E-3	3.012406E-3	6.710063E-3	3.249739E-3	2.416643E-3	2.558860E-3	4.348418E-3
10/19/2017  17:44:51.643896	2.146432E-1	4.264203E-3	6.594519E-4	1.180465E-3	2.023690E-3	5.041865E-3	3.393355E-3	3.160637E-3
10/19/2017  17:44:51.644896	2.681932E-1	9.101305E-3	1.022177E-3	1.548385E-4	2.964698E-3	5.171552E-3	2.427037E-3	5.867408E-4
10/19/2017  17:44:51.645896	3.637751E-1	5.525226E-3	1.667561E-4	7.169263E-3	4.192853E-3	1.068104E-2	3.816038E-3	6.897505E-3
10/19/2017  17:44:51.646896	2.510197E-1	1.003046E-2	1.021639E-3	3.125638E-3	3.848057E-3	8.998282E-3	3.385060E-4	7.741023E-3
10/19/2017  17:44:51.647896	8.479656E-2	2.121094E-3	5.569914E-3	2.407466E-3	4.820861E-4	6.418999E-3	2.140528E-3	9.907735E-3
10/19/2017  17:44:51.648896	1.154251E-1	6.473174E-3	5.997954E-3	4.207082E-3	7.560087E-3	4.314026E-3	3.000176E-3	7.803956E-3
10/19/2017  17:44:51.649896	3.505976E-1	1.032171E-3	3.540946E-3	8.104282E-3	2.289298E-3	4.616321E-3	2.798365E-3	8.158668E-3
10/19/2017  17:44:51.650896	5.887365E-1	6.559328E-3	1.115715E-2	4.904579E-3	1.744996E-3	1.655519E-3	4.166952E-3	1.757886E-3
10/19/2017  17:44:51.651896	7.970411E-2	7.995564E-4	5.102177E-3	3.576187E-3	4.066859E-3	5.596204E-4	4.642966E-3	3.706195E-3
10/19/2017  17:44:51.652896	1.127640E+0	6.755565E-4	1.370373E-3	1.425306E-3	1.057534E-2	3.770938E-3	4.467830E-3	5.891066E-4
10/19/2017  17:44:51.653896	1.805603E+0	8.564416E-3	1.118301E-2	2.608247E-4	1.555186E-2	1.064294E-2	2.116180E-3	3.367112E-3
10/19/2017  17:44:51.654896	3.238350E-1	1.550436E-3	1.180233E-2	2.588209E-3	2.281658E-3	1.382111E-3	1.002013E-2	1.641153E-2
10/19/2017  17:44:51.655896	3.468690E-1	6.833892E-3	5.056140E-3	1.569595E-2	5.956199E-3	1.355243E-3	1.295341E-5	9.986092E-4
10/19/2017  17:44:51.656896	1.816392E-1	2.672787E-3	6.884357E-3	1.066707E-2	7.610497E-3	6.880172E-3	6.134248E-3	1.372783E-2
10/19/2017  17:44:51.657896	1.096611E+0	8.311645E-3	8.682444E-3	2.004429E-2	6.175745E-3	4.370635E-3	1.057281E-2	4.403918E-3
10/19/2017  17:44:51.658896	1.372162E+0	2.938259E-3	9.513003E-3	3.929673E-3	6.175986E-3	6.920515E-3	3.839165E-3	7.674605E-3
10/19/2017  17:44:51.659896	1.230417E+0	1.599335E-3	8.798080E-3	2.322854E-3	6.301462E-3	2.123787E-3	8.719748E-3	1.608358E-3
10/19/2017  17:44:51.660896	6.290924E-1	1.328879E-2	5.231125E-3	8.819092E-3	1.287689E-3	1.513852E-3	1.752896E-3	5.201305E-3
10/19/2017  17:44:51.661896	1.321389E+0	6.800763E-3	9.462738E-3	1.192635E-3	8.008922E-3	2.968085E-3	3.332607E-3	5.005756E-3
10/19/2017  17:44:51.662896	1.075595E+0	4.637801E-3	3.667445E-3	3.330207E-3	6.908213E-3	1.136259E-2	5.970951E-3	2.785092E-3
10/19/2017  17:44:51.663896	6.772310E-1	1.097510E-2	2.518882E-4	1.555624E-3	1.312201E-3	1.454031E-2	9.984258E-4	6.867801E-3
10/19/2017  17:44:51.664896	8.220989E-1	4.509330E-3	5.276748E-3	3.657618E-3	2.390589E-3	1.516085E-2	7.247365E-3	5.729041E-3
10/19/2017  17:44:51.665896	1.494041E+0	1.370200E-2	5.871185E-3	2.594467E-3	6.011470E-4	5.882745E-3	3.487666E-3	3.080596E-3
10/19/2017  17:44:51.666896	1.398640E+0	1.820730E-3	2.272695E-3	1.740678E-3	2.389665E-3	3.527740E-3	1.732623E-3	8.237054E-3
10/19/2017  17:44:51.667896	3.347547E-1	1.314239E-2	2.081725E-3	9.212414E-4	8.140077E-3	7.132087E-3	9.506274E-3	3.320990E-3
10/19/2017  17:44:51.668896	2.750089E-1	9.101921E-3	7.440869E-3	3.519182E-3	5.961470E-3	9.134473E-3	2.407422E-3	8.113905E-3
10/19/2017  17:44:51.669896	1.179431E+0	2.041679E-3	8.579639E-3	1.906478E-3	1.869876E-3	2.397809E-3	1.537659E-3	7.661114E-3
10/19/2017  17:44:51.670896	9.236867E-1	1.543509E-3	3.986115E-4	3.287656E-3	7.490666E-3	2.716035E-3	8.689226E-4	6.661931E-3
10/19/2017  17:44:51.671896	7.093518E-1	5.074279E-3	4.807905E-3	5.748406E-3	1.246243E-2	5.573409E-3	3.707402E-4	8.559098E-3
10/19/2017  17:44:51.672896	3.864942E-1	3.234929E-3	2.730396E-4	1.283492E-3	7.785811E-3	7.195585E-3	1.534270E-5	1.183798E-3
								
10/19/2017  17:44:51.673896	5.401341E-1	6.070120E-3	4.738991E-3	5.553850E-3	1.696120E-3	4.425187E-3	2.223917E-4	5.299120E-4
10/19/2017  17:44:51.674896	6.443166E-1	4.707250E-3	4.476990E-3	6.237234E-3	1.975465E-3	1.682289E-3	3.650022E-4	2.041839E-3
10/19/2017  17:44:51.675896	6.014063E-1	2.897447E-3	2.370476E-3	5.129442E-3	6.103597E-3	3.300220E-3	1.554419E-3	1.251283E-3
10/19/2017  17:44:51.676896	6.156232E-1	6.478722E-3	4.470478E-3	3.698944E-3	4.170751E-3	1.988891E-3	7.381385E-3	1.208194E-3
10/19/2017  17:44:51.677896	4.932819E-1	6.283389E-3	5.481245E-4	2.490228E-3	2.641053E-3	4.999303E-3	1.935362E-4	1.105413E-3
10/19/2017  17:44:51.678896	7.195742E-2	3.513463E-3	2.474902E-3	3.477239E-3	2.527625E-3	4.827967E-3	7.636147E-3	1.026579E-3
10/19/2017  17:44:51.679896	5.130049E-1	5.958668E-4	5.803407E-3	5.664442E-3	5.440990E-3	3.742381E-3	4.579058E-3	9.720440E-3
10/19/2017  17:44:51.680896	5.228086E-1	1.182522E-3	5.687920E-3	1.642775E-3	4.650711E-3	4.705661E-3	3.816308E-3	2.574534E-3
10/19/2017  17:44:51.681896	2.282538E-1	1.545714E-3	3.665915E-3	4.141344E-3	1.599896E-3	3.099612E-3	3.101741E-3	5.951908E-3
10/19/2017  17:44:51.682896	3.852521E-1	7.688759E-3	6.955555E-3	5.426045E-3	8.569197E-3	1.609518E-3	4.429208E-3	6.430295E-3
10/19/2017  17:44:51.683896	6.485536E-1	8.120543E-4	8.927762E-4	1.809894E-3	1.836187E-3	1.140915E-2	3.108672E-3	4.559790E-3
10/19/2017  17:44:51.684896	1.088475E+0	3.477123E-3	5.054330E-3	5.447230E-3	1.002263E-2	4.311746E-3	4.521039E-3	4.932789E-3
10/19/2017  17:44:51.685896	3.531581E-1	2.028675E-4	7.058727E-3	8.098531E-4	8.384566E-3	8.541392E-3	2.788071E-3	9.226421E-3
10/19/2017  17:44:51.686896	1.283119E-1	6.430838E-3	1.494558E-3	3.369457E-3	8.493415E-3	3.783271E-3	4.549473E-3	9.295975E-4
10/19/2017  17:44:51.687896	5.941342E-1	6.304874E-3	2.779039E-4	2.415827E-3	4.418564E-3	7.375365E-3	3.282314E-3	9.119172E-3
10/19/2017  17:44:51.688896	3.100070E-2	4.100976E-4	7.547039E-3	3.797764E-3	1.014545E-2	6.482990E-3	9.696606E-3	6.605776E-3
10/19/2017  17:44:51.689896	5.685228E-1	5.083717E-4	1.529358E-3	1.226723E-2	8.914358E-4	6.472648E-3	3.346877E-3	2.321773E-3
10/19/2017  17:44:51.690896	3.687383E-1	2.513789E-3	1.433994E-4	3.707605E-3	8.720973E-3	2.091130E-3	7.209403E-3	5.599955E-3
10/19/2017  17:44:51.691896	3.530118E-1	4.934115E-4	4.973669E-3	6.721717E-4	2.354073E-3	2.799422E-3	4.899237E-3	4.877934E-3
10/19/2017  17:44:51.692896	9.236165E-2	7.623615E-3	6.166022E-3	8.307173E-4	1.310238E-2	3.501841E-3	6.181571E-3	1.083366E-2
10/19/2017  17:44:51.693896	2.083170E-1	1.621702E-4	2.286178E-3	8.136765E-3	6.102416E-4	6.419583E-3	8.502626E-3	4.540275E-3
10/19/2017  17:44:51.694896	2.520240E-1	3.059195E-3	8.471484E-3	1.123824E-2	1.059152E-3	1.124031E-6	2.792589E-3	1.362761E-2
10/19/2017  17:44:51.695896	8.813506E-2	1.293417E-3	1.497896E-3	1.422580E-2	6.033782E-3	5.887203E-3	6.454322E-3	1.990768E-3
10/19/2017  17:44:51.696896	2.879078E-1	2.785168E-4	1.059816E-2	6.750481E-3	1.822846E-3	9.011512E-4	4.881302E-4	2.507913E-3
10/19/2017  17:44:51.697896	2.133622E-1	7.320205E-3	5.118180E-3	2.572404E-3	5.001189E-3	1.228728E-2	5.157126E-3	1.028801E-3
10/19/2017  17:44:51.698896	4.312708E-1	5.056290E-3	7.217820E-3	1.749736E-3	4.361765E-3	2.654929E-3	5.937234E-3	7.162843E-3
10/19/2017  17:44:51.699896	5.730882E-1	2.756380E-3	4.250096E-3	1.934336E-3	1.375492E-3	1.605028E-3	7.581647E-3	1.656739E-3
10/19/2017  17:44:51.700896	3.521673E-1	6.648933E-3	9.018972E-3	7.735542E-3	6.798870E-3	8.024167E-4	6.912589E-3	9.092682E-4
10/19/2017  17:44:51.701896	7.368939E-1	2.190632E-3	2.770067E-3	3.272271E-3	3.391087E-3	3.765217E-3	1.130997E-2	5.626720E-3
10/19/2017  17:44:51.702896	7.573758E-1	3.471660E-3	1.701151E-3	2.030547E-3	8.812495E-3	6.199258E-3	2.917822E-3	3.113732E-3
10/19/2017  17:44:51.703896	6.338272E-2	3.993534E-3	8.016599E-4	7.335858E-3	8.700698E-3	9.247281E-4	2.589873E-3	1.269760E-2
10/19/2017  17:44:51.704896	4.914373E-1	2.163487E-3	2.054691E-3	1.409233E-2	1.280948E-2	7.282810E-3	5.712305E-3	2.714165E-3
10/19/2017  17:44:51.705896	2.834338E-1	2.111632E-2	5.470997E-3	3.044914E-3	3.754160E-3	6.551350E-3	4.902564E-3	1.995196E-3
								
10/19/2017  17:44:51.706896	1.736328E-1	1.045498E-2	2.756954E-4	3.322497E-5	4.445705E-3	4.497005E-3	9.420836E-4	4.556662E-3
10/19/2017  17:44:51.707896	3.797239E-1	1.095703E-2	3.660966E-3	1.395605E-2	7.048657E-3	2.915627E-3	8.351565E-3	1.879429E-3
10/19/2017  17:44:51.708896	1.208871E+0	3.728035E-3	7.196171E-4	6.843495E-3	3.908125E-3	2.298783E-3	1.944909E-3	5.714166E-3
10/19/2017  17:44:51.709896	7.007563E-1	3.478745E-3	5.474386E-3	9.163897E-3	5.333028E-4	1.285653E-3	4.239200E-3	3.569547E-3
10/19/2017  17:44:51.710896	5.865161E-1	1.492817E-3	4.002128E-3	1.155868E-4	1.397729E-3	3.458458E-3	3.383210E-3	9.785800E-5
10/19/2017  17:44:51.711896	1.919340E-1	1.982626E-3	1.192461E-3	2.259294E-3	1.394476E-2	7.433346E-5	7.307706E-3	5.566266E-3
10/19/2017  17:44:51.712896	2.373339E-1	4.053236E-3	2.264388E-4	4.401004E-3	2.443425E-3	2.215425E-5	1.281689E-2	9.498447E-3
10/19/2017  17:44:51.713896	1.522979E-1	3.046327E-3	4.418985E-3	7.950750E-3	4.818686E-3	1.896453E-3	1.256141E-4	1.190541E-2
10/19/2017  17:44:51.714896	9.062138E-1	2.119371E-4	3.083378E-3	1.118632E-3	4.797456E-3	7.079190E-3	2.302121E-3	7.707142E-3
10/19/2017  17:44:51.715896	8.557762E-1	3.488120E-3	6.029015E-4	2.551117E-3	2.625880E-4	4.028261E-3	3.393585E-3	9.107388E-3
10/19/2017  17:44:51.716896	1.235307E-1	1.375761E-3	2.828897E-3	8.430084E-4	2.650753E-3	1.045543E-2	2.286709E-3	6.821803E-3
10/19/2017  17:44:51.717896	9.233495E-1	2.132835E-3	1.936794E-3	2.895790E-3	3.683754E-3	6.568539E-3	3.624774E-3	7.928619E-3
10/19/2017  17:44:51.718896	1.412583E+0	2.182530E-3	8.099764E-4	4.046928E-3	2.886917E-3	4.510996E-3	1.374712E-2	4.210287E-3
10/19/2017  17:44:51.719896	1.256750E+0	1.898371E-3	1.345954E-2	6.073974E-3	2.773910E-3	7.084190E-3	2.907569E-3	1.051818E-2
10/19/2017  17:44:51.720896	4.864176E-1	1.600452E-4	3.116397E-3	2.276400E-4	3.434578E-3	4.454938E-3	1.896148E-2	7.086521E-4
10/19/2017  17:44:51.721896	1.725144E-2	1.293250E-2	1.514913E-2	1.909612E-3	1.114746E-2	5.183326E-3	2.793090E-3	2.621840E-3
10/19/2017  17:44:51.722896	8.319201E-1	2.173023E-3	1.267657E-3	8.981044E-3	8.780708E-4	8.230871E-4	1.950773E-3	5.522571E-3
10/19/2017  17:44:51.723896	9.942024E-1	2.647671E-3	6.590420E-3	5.562802E-3	8.146848E-3	1.146662E-2	1.272124E-3	2.726169E-3
10/19/2017  17:44:51.724896	5.786666E-1	7.155353E-4	1.073625E-2	6.084901E-3	1.215307E-2	1.195327E-4	1.249411E-3	7.321022E-3
10/19/2017  17:44:51.725896	2.153160E-1	4.801032E-3	4.412469E-3	1.901301E-3	7.466685E-3	5.767892E-4	7.267127E-3	1.053838E-3
10/19/2017  17:44:51.726896	2.044153E-2	4.931918E-3	7.896954E-3	1.110567E-2	1.216866E-2	1.317740E-2	4.163967E-3	3.939864E-3
10/19/2017  17:44:51.727896	7.437901E-2	1.134042E-2	7.879955E-4	3.390794E-4	3.167589E-3	1.416876E-3	2.862197E-3	6.662937E-3
10/19/2017  17:44:51.728896	1.172617E-1	1.741915E-3	5.623334E-3	1.542318E-2	1.458718E-2	5.768064E-3	4.148377E-3	2.846820E-4
10/19/2017  17:44:51.729896	2.252922E-2	3.742139E-3	6.936320E-3	1.347298E-3	4.184559E-5	1.680519E-3	3.917876E-3	5.942287E-4
10/19/2017  17:44:51.730896	4.047484E-1	4.719089E-3	2.027323E-3	5.373365E-4	2.918969E-3	4.962563E-3	1.247282E-2	4.771879E-3
10/19/2017  17:44:51.731896	2.629577E-1	7.001224E-3	1.314098E-2	1.399568E-2	1.828072E-4	7.499036E-3	1.338573E-2	5.023086E-3
10/19/2017  17:44:51.732896	8.664558E-2	2.493733E-3	5.204872E-3	6.348138E-3	3.764598E-3	7.409714E-3	4.135972E-3	1.138355E-2
10/19/2017  17:44:51.733896	8.655027E-2	2.205754E-3	1.223401E-2	3.635191E-3	1.404341E-2	1.695452E-4	5.913612E-3	1.554079E-3
10/19/2017  17:44:51.734896	1.263544E-1	2.066866E-3	4.039833E-5	4.613092E-3	3.184212E-3	8.884892E-3	1.571635E-3	1.931476E-2
10/19/2017  17:44:51.735896	1.412337E-1	1.577812E-3	4.689592E-4	2.916870E-2	3.719043E-3	4.460171E-3	7.220152E-3	1.151509E-2
10/19/2017  17:44:51.736896	1.079300E-1	9.715493E-3	6.744067E-3	6.540487E-3	1.038700E-2	2.078959E-4	7.979930E-3	1.541794E-3
10/19/2017  17:44:51.737896	9.629719E-2	6.097745E-3	2.009640E-3	1.811563E-2	1.934200E-3	8.454463E-3	1.382200E-3	2.658068E-3
10/19/2017  17:44:51.738896	5.971427E-2	7.289275E-4	4.726417E-3	1.762237E-3	7.360548E-3	4.926042E-3	5.023176E-3	3.042178E-3
								
10/19/2017  17:44:51.739896	8.953329E-2	3.091332E-3	3.638787E-4	3.696568E-4	3.137993E-5	1.295090E-3	5.154059E-3	3.280596E-4
10/19/2017  17:44:51.740896	2.858194E-2	4.858888E-3	1.040028E-2	6.377451E-3	6.463481E-3	6.927050E-3	9.374393E-4	6.658964E-4
10/19/2017  17:44:51.741896	1.718628E-3	3.322139E-3	2.104687E-3	4.425556E-5	4.158174E-3	2.701289E-3	5.746929E-3	4.816613E-3
10/19/2017  17:44:51.742896	9.022856E-3	6.020001E-3	7.176430E-3	1.364633E-5	3.659246E-3	7.475216E-3	2.627758E-3	1.066447E-3
10/19/2017  17:44:51.743896	9.878276E-3	8.986719E-3	2.282966E-4	1.960106E-3	2.061073E-3	1.102546E-2	1.534900E-3	2.603202E-3
10/19/2017  17:44:51.744896	2.089926E-2	4.183509E-3	4.084652E-3	5.033187E-3	5.178548E-3	1.145651E-2	7.249712E-3	1.317122E-3
10/19/2017  17:44:51.745896	3.924589E-2	1.208375E-2	3.591114E-3	1.087498E-3	8.753625E-3	7.291024E-3	1.968632E-3	3.583154E-3
10/19/2017  17:44:51.746896	7.616233E-2	7.962931E-3	1.944412E-3	4.707553E-3	1.615689E-3	5.753645E-3	1.527864E-3	2.665969E-4
10/19/2017  17:44:51.747896	3.898775E-2	1.118661E-2	5.277688E-3	6.411514E-3	5.965037E-3	2.789953E-3	1.622854E-3	6.135833E-3
10/19/2017  17:44:51.748896	4.700673E-2	1.879256E-3	6.682296E-3	3.247902E-3	3.781786E-3	1.858624E-3	9.550530E-3	1.101437E-3
10/19/2017  17:44:51.749896	6.956539E-2	1.208177E-2	6.335491E-4	3.040300E-3	1.286497E-3	6.782050E-3	4.290194E-4	2.215853E-3
10/19/2017  17:44:51.750896	8.629698E-2	3.633047E-3	9.121469E-3	1.072028E-2	1.047972E-2	6.146514E-4	5.841250E-4	1.941772E-4
10/19/2017  17:44:51.751896	4.923271E-2	1.897238E-3	4.425938E-3	8.467134E-3	4.807791E-3	1.244935E-3	5.275626E-3	9.012451E-3
10/19/2017  17:44:51.752896	6.768979E-2	1.076774E-2	4.309990E-3	2.563104E-2	1.111032E-3	2.318842E-3	3.004701E-4	2.292288E-3
10/19/2017  17:44:51.753896	3.336691E-2	8.478867E-3	6.187181E-3	9.742109E-3	1.325493E-3	5.829337E-3	6.887338E-3	1.292013E-2
10/19/2017  17:44:51.754896	6.691164E-2	2.309664E-3	1.855834E-3	1.065933E-2	5.323302E-3	4.563716E-4	7.932191E-4	7.806316E-3
10/19/2017  17:44:51.755896	1.142694E-1	3.352715E-3	5.375871E-3	1.727583E-3	1.072147E-3	2.755584E-3	3.019955E-3	5.983905E-3
10/19/2017  17:44:51.756896	1.831242E-1	2.616360E-3	1.329855E-3	7.639072E-4	9.003451E-4	1.644031E-3	8.102666E-3	4.394806E-3
10/19/2017  17:44:51.757896	6.939491E-2	7.946516E-3	1.309104E-3	1.822910E-3	1.287175E-3	1.624796E-2	5.504799E-3	2.933809E-3
10/19/2017  17:44:51.758896	6.993824E-2	7.452580E-3	4.830279E-3	3.282137E-3	6.487851E-3	4.190741E-3	1.428366E-3	8.786968E-3
10/19/2017  17:44:51.759896	2.092860E-1	4.225057E-3	5.592946E-4	7.860323E-3	6.947315E-3	1.036594E-2	5.150915E-3	8.304212E-4
10/19/2017  17:44:51.760896	9.714746E-2	1.213582E-2	6.108934E-3	6.065095E-3	1.055029E-2	1.074380E-2	2.665563E-3	4.728676E-3
10/19/2017  17:44:51.761896	7.024883E-1	4.854657E-3	1.427766E-2	4.111813E-3	2.279461E-3	1.269813E-2	7.163546E-3	7.194315E-3
10/19/2017  17:44:51.762896	5.325705E-1	8.831827E-3	8.496917E-3	1.139636E-2	2.064483E-3	7.336743E-3	2.630164E-3	1.772208E-3
10/19/2017  17:44:51.763896	3.643677E-2	5.549315E-3	1.173708E-2	4.149800E-3	4.121858E-3	7.127711E-3	6.328822E-3	5.842241E-3
10/19/2017  17:44:51.764896	5.981362E-1	5.987019E-3	6.129341E-4	1.534195E-2	6.585446E-3	7.496921E-3	2.763575E-3	1.007491E-2
10/19/2017  17:44:51.765896	7.150777E-1	5.530215E-3	4.121139E-4	1.198480E-3	1.063592E-2	3.027678E-4	1.011446E-2	2.179468E-3
10/19/2017  17:44:51.766896	1.893140E-1	1.214110E-2	8.367731E-4	7.333185E-3	3.826700E-3	7.192718E-3	3.690309E-3	7.480564E-3
10/19/2017  17:44:51.767896	1.131835E-1	1.090189E-3	6.370285E-4	3.468592E-3	6.341351E-3	9.000187E-4	1.063026E-2	7.939577E-3
10/19/2017  17:44:51.768896	4.643228E-1	2.079344E-3	1.159992E-2	2.718799E-4	2.733214E-3	6.926029E-3	1.442240E-3	6.708165E-3
10/19/2017  17:44:51.769896	1.206332E+0	7.596598E-3	6.102201E-4	1.057113E-2	6.088646E-3	8.960429E-3	7.178189E-4	1.063687E-2
10/19/2017  17:44:51.770896	4.489173E-1	1.021318E-3	3.998140E-3	6.020721E-3	1.833738E-2	4.005514E-3	1.814045E-4	1.029744E-2
10/19/2017  17:44:51.771896	1.776976E-1	2.133806E-3	8.300550E-3	9.626518E-3	6.455078E-3	7.323440E-3	2.183992E-3	4.929179E-3
								
10/19/2017  17:44:51.772896	9.091348E-1	5.445528E-3	8.590104E-4	8.705943E-4	7.213476E-3	6.391318E-3	7.414668E-3	1.995121E-3
10/19/2017  17:44:51.773896	1.442616E+0	3.676361E-3	4.398498E-3	7.515708E-4	1.108927E-3	1.023937E-2	4.055306E-3	4.116882E-3
10/19/2017  17:44:51.774896	8.299816E-1	1.703624E-3	1.831695E-3	5.832427E-3	1.304933E-3	6.336171E-3	3.164421E-3	1.135157E-3
10/19/2017  17:44:51.775896	2.379632E-1	8.366050E-4	1.515805E-3	1.250341E-2	5.311785E-3	1.196533E-2	4.724545E-3	7.215663E-3
10/19/2017  17:44:51.776896	9.639392E-2	1.960231E-4	3.175952E-3	5.084063E-4	7.228972E-3	7.639082E-3	3.194982E-3	2.999372E-4
10/19/2017  17:44:51.777896	4.922992E-1	8.204041E-3	1.174345E-4	3.469686E-3	2.369188E-3	9.002124E-3	1.193895E-2	5.994697E-3
10/19/2017  17:44:51.778896	3.071935E-1	2.593594E-3	2.168512E-3	2.480715E-3	2.186084E-3	4.993994E-3	5.869460E-3	6.523758E-4
10/19/2017  17:44:51.779896	1.624680E-1	1.111417E-2	1.265331E-3	1.469047E-5	3.998967E-3	1.222438E-3	1.034469E-2	2.673611E-3
10/19/2017  17:44:51.780896	4.360627E-1	1.412887E-3	1.529666E-2	6.562142E-3	2.838841E-3	4.816946E-3	6.143368E-3	1.652749E-3
10/19/2017  17:44:51.781896	4.461843E-1	4.973151E-3	6.008237E-3	1.945231E-3	2.059124E-3	7.351445E-3	1.085095E-3	3.149001E-3
10/19/2017  17:44:51.782896	3.935226E-1	1.301362E-3	1.068532E-2	3.022879E-3	3.182469E-3	8.082824E-3	5.541731E-3	2.132352E-3
10/19/2017  17:44:51.783896	1.443675E-1	1.300882E-2	6.807666E-4	5.791481E-3	7.807520E-3	8.290457E-3	2.090768E-3	5.117295E-3
10/19/2017  17:44:51.784896	4.300306E-1	8.962482E-3	1.496502E-3	1.065841E-3	5.703503E-3	1.168479E-2	4.469474E-3	9.542273E-3
10/19/2017  17:44:51.785896	2.911779E-1	2.643143E-4	3.307933E-3	1.517026E-2	6.288386E-3	9.204176E-3	1.054859E-2	1.744645E-3
10/19/2017  17:44:51.786896	2.606679E-1	1.873703E-3	5.937034E-3	5.556458E-3	1.321671E-2	7.920543E-4	6.901156E-3	1.313107E-2
10/19/2017  17:44:51.787896	7.144959E-1	1.337660E-3	7.000916E-3	7.842834E-3	1.668132E-3	8.870568E-3	5.924797E-3	6.941441E-3
10/19/2017  17:44:51.788896	6.748775E-1	3.215722E-3	4.338708E-3	1.435721E-3	1.358824E-3	9.620453E-4	5.255113E-3	1.070205E-2
10/19/2017  17:44:51.789896	6.216544E-1	2.082246E-3	9.658804E-3	3.007666E-3	1.104610E-2	6.933492E-3	3.667325E-3	1.937191E-3
10/19/2017  17:44:51.790896	9.788010E-2	2.807081E-3	2.617864E-3	1.025199E-2	1.276501E-4	5.976652E-3	6.854897E-3	7.542409E-3
10/19/2017  17:44:51.791896	3.398399E-2	1.568850E-3	7.937802E-3	1.408491E-3	7.117477E-3	6.309660E-4	3.769837E-3	1.683967E-3
10/19/2017  17:44:51.792896	3.224923E-1	7.296417E-3	2.465090E-3	1.818177E-2	6.862850E-3	4.647843E-3	2.007924E-3	5.210768E-3
10/19/2017  17:44:51.793896	2.947064E-1	4.028283E-3	9.148410E-3	3.403653E-3	5.848870E-3	4.677088E-3	7.322400E-3	4.873779E-3
10/19/2017  17:44:51.794896	5.205700E-2	4.431530E-3	5.459929E-3	8.383903E-3	3.036882E-3	9.723417E-3	2.131554E-3	9.789451E-3
10/19/2017  17:44:51.795896	1.456825E-2	1.128268E-2	5.331815E-3	2.672288E-3	1.104379E-2	1.707867E-3	3.846818E-3	3.530301E-5
10/19/2017  17:44:51.796896	4.564919E-1	5.471597E-3	5.513498E-3	5.120860E-3	8.692356E-3	1.135661E-2	7.307651E-3	4.060390E-3
10/19/2017  17:44:51.797896	4.057956E-1	7.249614E-3	1.116379E-3	7.459346E-3	1.356574E-2	2.336831E-3	3.365586E-3	1.563278E-4
10/19/2017  17:44:51.798896	2.808166E-1	1.031286E-2	3.714792E-3	3.788675E-3	3.979075E-3	7.475261E-3	1.553333E-3	1.023415E-2
10/19/2017  17:44:51.799896	7.753352E-2	2.207327E-4	6.345352E-3	1.586057E-3	8.316080E-3	3.074478E-3	1.059879E-2	3.644960E-3
10/19/2017  17:44:51.800896	4.500558E-1	5.986733E-3	4.621199E-3	2.682044E-3	3.131991E-3	4.742588E-3	5.330965E-3	8.806894E-3
10/19/2017  17:44:51.801896	7.946095E-2	7.477900E-4	2.997663E-3	4.940790E-3	1.640507E-3	5.126221E-3	2.316667E-3	2.220622E-3
10/19/2017  17:44:51.802896	5.191663E-1	1.278992E-2	6.599153E-3	3.222426E-3	7.452584E-3	8.657452E-4	3.201343E-3	1.258836E-3
10/19/2017  17:44:51.803896	1.027863E+0	6.963179E-3	8.725543E-5	4.088761E-3	3.628785E-3	3.881308E-3	4.300883E-3	1.128505E-2
10/19/2017  17:44:51.804896	4.451311E-2	1.447053E-2	4.189019E-3	2.173434E-3	9.171949E-5	5.053462E-4	7.392157E-3	3.564436E-3
								
10/19/2017  17:44:51.805896	2.297661E+0	8.226967E-3	1.662645E-3	1.258834E-3	1.040685E-4	3.558105E-3	4.043304E-3	8.386715E-3
10/19/2017  17:44:51.806896	1.483824E+0	3.515271E-3	7.083542E-3	9.278080E-3	7.734510E-3	2.310672E-3	8.657111E-3	7.367141E-3
10/19/2017  17:44:51.807896	3.985265E-1	1.655909E-3	1.718146E-3	8.589720E-3	4.236655E-3	1.768824E-3	6.243982E-4	6.355961E-3
10/19/2017  17:44:51.808896	1.286729E+0	3.312852E-3	5.808369E-3	1.214715E-3	3.279104E-3	6.634977E-3	4.501538E-3	8.867671E-3
10/19/2017  17:44:51.809896	6.348169E-1	8.022619E-3	1.996761E-3	1.111390E-2	4.505707E-4	8.801365E-4	6.560547E-3	3.473664E-3
10/19/2017  17:44:51.810896	1.073200E-1	7.834486E-3	5.392586E-4	9.800350E-3	3.272973E-3	7.503336E-3	1.394512E-3	1.407516E-2
10/19/2017  17:44:51.811896	4.975835E-1	1.037962E-3	4.896346E-4	1.173398E-2	1.076689E-2	1.017470E-3	1.031402E-2	8.425759E-3
10/19/2017  17:44:51.812896	7.231002E-1	8.301166E-3	7.129977E-3	1.019077E-2	2.380093E-3	1.219357E-4	3.005095E-3	4.371894E-3
10/19/2017  17:44:51.813896	4.021497E-1	6.059075E-3	6.020594E-4	7.118031E-3	9.326564E-4	1.505282E-3	1.677835E-3	1.739402E-3
10/19/2017  17:44:51.814896	4.910799E-1	1.239537E-2	8.480531E-3	1.002305E-3	3.829422E-3	1.375530E-2	7.604523E-3	8.123460E-3
10/19/2017  17:44:51.815896	7.098348E-1	8.760435E-3	4.689216E-4	1.397459E-2	1.088850E-3	2.122533E-3	3.332230E-3	7.506547E-3
10/19/2017  17:44:51.816896	4.332897E-1	2.963804E-3	8.594487E-3	1.066707E-2	8.862805E-3	9.739441E-3	3.743523E-3	2.431664E-3
10/19/2017  17:44:51.817896	7.025348E-2	8.877347E-3	5.454789E-3	6.417200E-3	8.276702E-3	1.035605E-2	5.590088E-3	4.953334E-3
10/19/2017  17:44:51.818896	1.288808E-1	7.336901E-3	1.089415E-2	4.460280E-3	1.200269E-3	1.164911E-2	1.179968E-2	4.857443E-3
10/19/2017  17:44:51.819896	2.414640E-1	1.029206E-2	1.032475E-4	7.010071E-3	5.243810E-3	1.273697E-2	1.141450E-2	4.346085E-3
10/19/2017  17:44:51.820896	3.677017E-1	3.708964E-3	1.091577E-2	4.683847E-3	7.271694E-3	1.270920E-2	7.898258E-3	8.453542E-3
10/19/2017  17:44:51.821896	5.493093E-1	1.933419E-3	1.364396E-3	9.535361E-3	1.728883E-3	6.364260E-3	7.960212E-4	5.648248E-3
10/19/2017  17:44:51.822896	2.453101E-3	3.384428E-3	8.735849E-3	8.249337E-3	5.115381E-3	2.482191E-3	3.940998E-3	2.532852E-3
10/19/2017  17:44:51.823896	5.726318E-1	3.562096E-3	7.552415E-3	8.320829E-3	5.255390E-3	5.689854E-3	6.187442E-4	2.667297E-3
10/19/2017  17:44:51.824896	6.556282E-1	2.550334E-3	6.909499E-3	8.517861E-3	7.091623E-3	8.728818E-4	7.494016E-3	5.600495E-3
10/19/2017  17:44:51.825896	5.901770E-1	6.124993E-3	4.108291E-3	1.418762E-2	2.525794E-3	6.847832E-3	7.132262E-3	8.469567E-4
10/19/2017  17:44:51.826896	1.893628E-1	1.989166E-4	4.520219E-3	1.580218E-3	8.295082E-3	2.071208E-3	7.644368E-3	1.217081E-2
10/19/2017  17:44:51.827896	2.606936E-1	1.910624E-3	5.617132E-3	7.137714E-3	1.480542E-2	3.360806E-3	1.986525E-3	9.038715E-3
10/19/2017  17:44:51.828896	4.815520E-1	1.002464E-3	6.581114E-4	7.864020E-3	5.239854E-4	4.144863E-3	7.757524E-3	3.803949E-3
10/19/2017  17:44:51.829896	2.547495E-1	5.660323E-3	5.486031E-3	6.469060E-3	2.401382E-2	4.372730E-3	6.198851E-4	5.491961E-3
10/19/2017  17:44:51.830896	1.349013E-1	4.706167E-3	9.254809E-3	2.780433E-3	4.253875E-3	7.874709E-3	3.842582E-3	2.141116E-3
10/19/2017  17:44:51.831896	3.134687E-1	8.582016E-3	4.458651E-3	3.167379E-4	2.365033E-3	1.283761E-3	4.240191E-3	3.798632E-5
10/19/2017  17:44:51.832896	1.560290E-2	7.873323E-3	1.533318E-3	6.772417E-3	1.230735E-2	6.779904E-3	3.897137E-3	1.062108E-2
10/19/2017  17:44:51.833896	8.543872E-2	1.132955E-2	1.106923E-3	8.058903E-3	4.658894E-3	4.454864E-3	3.398920E-3	1.973960E-4
10/19/2017  17:44:51.834896	2.998191E-1	5.535839E-3	1.224664E-3	1.192417E-2	5.359607E-3	4.970517E-3	8.394310E-3	6.280236E-3
10/19/2017  17:44:51.835896	2.577619E-1	3.423339E-3	4.494197E-3	7.031328E-3	9.878244E-4	3.160141E-3	8.755097E-4	4.219565E-3
10/19/2017  17:44:51.836896	3.434955E-1	1.013394E-2	3.951056E-3	6.335504E-3	6.788918E-3	5.868551E-3	3.874781E-3	2.224947E-3
10/19/2017  17:44:51.837896	4.570295E-1	4.800019E-4	2.073825E-2	7.561694E-3	3.067278E-4	2.958309E-3	6.465805E-3	1.123338E-2
								
10/19/2017  17:44:51.838896	4.342552E-1	7.019407E-3	6.887888E-3	7.772727E-3	1.293088E-3	1.111977E-2	2.512725E-3	1.456259E-3
10/19/2017  17:44:51.839896	2.063126E-1	4.616872E-4	1.136577E-2	3.265921E-3	1.925884E-3	1.073997E-2	5.803215E-3	5.110784E-3
10/19/2017  17:44:51.840896	5.690848E-1	2.386476E-3	3.155552E-3	4.190414E-3	3.795680E-3	8.523975E-3	1.275122E-3	1.121146E-3
10/19/2017  17:44:51.841896	1.108825E-1	6.524159E-4	4.159687E-3	4.307797E-3	3.342054E-3	9.671677E-3	3.672410E-3	8.848075E-3
10/19/2017  17:44:51.842896	5.262816E-2	5.481126E-3	3.697372E-3	1.181097E-2	1.350184E-3	6.434116E-3	4.437629E-4	1.208113E-3
10/19/2017  17:44:51.843896	1.482362E-1	1.297287E-3	6.147341E-3	8.848405E-3	1.004618E-2	9.690370E-3	3.519177E-3	5.314166E-3
10/19/2017  17:44:51.844896	1.403115E-1	6.519119E-3	2.964522E-3	1.691709E-2	3.849158E-3	9.239083E-3	4.205494E-4	6.098107E-4
10/19/2017  17:44:51.845896	8.578971E-2	5.372436E-3	8.349231E-3	5.518543E-3	2.014617E-3	1.591058E-4	8.834548E-3	1.791214E-3
10/19/2017  17:44:51.846896	6.312938E-3	2.337188E-3	5.039602E-3	4.721655E-3	1.327243E-2	5.335042E-3	6.715063E-3	4.877679E-3
10/19/2017  17:44:51.847896	7.372995E-2	4.347159E-3	2.778488E-3	6.279756E-3	3.352025E-3	5.839965E-3	5.618948E-3	3.451775E-3
10/19/2017  17:44:51.848896	2.457091E-2	9.203404E-3	1.066232E-3	6.541191E-3	5.194523E-3	6.247973E-3	3.377042E-4	2.262981E-3
10/19/2017  17:44:51.849896	1.785083E-2	1.325152E-3	4.156372E-3	1.349990E-4	8.100706E-3	3.759264E-5	1.697703E-2	1.300122E-3
10/19/2017  17:44:51.850896	8.570053E-3	3.715851E-3	1.063196E-3	5.798997E-3	7.667811E-4	3.890517E-3	1.344946E-4	7.410844E-3
10/19/2017  17:44:51.851896	2.892786E-2	5.720109E-4	3.099594E-3	3.084443E-3	6.058975E-3	6.061242E-3	3.088729E-4	3.873480E-3
10/19/2017  17:44:51.852896	5.822428E-2	7.290823E-3	3.887142E-3	6.258867E-3	5.335845E-3	5.582542E-3	2.625924E-3	1.040983E-2
10/19/2017  17:44:51.853896	1.174888E-2	2.647781E-3	8.155481E-3	1.751374E-2	5.915759E-3	1.124351E-2	1.878404E-3	6.555585E-3
10/19/2017  17:44:51.854896	5.392850E-3	1.260892E-2	1.185150E-3	1.529066E-2	3.747913E-3	1.358205E-3	6.944922E-4	6.465086E-3
10/19/2017  17:44:51.855896	5.269525E-2	4.305531E-3	4.841078E-3	1.712842E-3	7.928673E-3	2.957728E-3	2.153258E-3	6.103086E-3
10/19/2017  17:44:51.856896	1.191522E-1	8.239197E-3	6.615796E-4	1.624371E-4	1.159518E-2	9.582143E-3	3.192373E-3	7.199565E-3
10/19/2017  17:44:51.857896	3.226923E-2	6.156461E-3	5.950415E-3	9.427384E-3	2.446767E-3	3.317156E-3	5.703643E-3	1.282290E-2
10/19/2017  17:44:51.858896	1.568992E-1	6.535649E-3	5.423074E-3	8.335786E-3	9.489806E-3	5.091568E-3	9.369230E-3	4.037868E-3
10/19/2017  17:44:51.859896	3.941023E-2	5.737722E-3	7.451149E-3	3.073759E-3	8.001139E-3	1.435073E-4	3.836482E-3	3.721349E-3
10/19/2017  17:44:51.860896	9.507394E-2	2.702899E-3	1.216139E-3	3.817999E-3	1.659231E-3	9.184825E-3	1.916660E-3	2.167366E-3
10/19/2017  17:44:51.861896	2.372382E-1	1.541191E-2	2.356961E-3	4.053758E-3	1.144676E-2	6.227992E-3	5.283858E-3	4.962473E-3
10/19/2017  17:44:51.862896	1.385691E-1	5.137598E-3	5.213250E-3	1.473657E-3	1.630044E-3	1.922665E-2	8.638320E-4	1.107666E-3
10/19/2017  17:44:51.863896	7.964140E-3	2.362314E-2	3.442114E-3	4.727269E-3	5.571664E-3	2.465985E-3	7.931869E-3	1.215604E-3
10/19/2017  17:44:51.864896	3.314951E-1	1.170415E-3	3.920647E-3	1.716645E-3	1.522319E-3	5.617751E-3	1.358743E-3	3.490023E-3
10/19/2017  17:44:51.865896	3.699891E-2	6.849240E-3	4.046472E-3	1.348661E-2	1.088504E-3	2.900203E-3	4.955494E-3	2.086395E-3
10/19/2017  17:44:51.866896	4.292442E-2	1.122254E-2	2.303879E-3	5.740939E-4	1.410321E-3	7.803910E-3	3.256981E-3	6.925277E-3
10/19/2017  17:44:51.867896	2.206093E-1	9.032492E-4	8.040080E-3	6.795961E-4	8.779798E-3	1.292192E-5	7.971049E-3	8.142673E-3
10/19/2017  17:44:51.868896	2.385848E-1	2.388152E-3	5.114743E-3	7.856642E-4	5.564124E-3	8.885485E-3	8.376768E-5	4.661773E-3
10/19/2017  17:44:51.869896	2.632468E-1	1.019720E-3	1.264323E-3	5.772068E-3	7.912648E-3	3.311112E-4	1.679299E-2	3.937365E-3
10/19/2017  17:44:51.870896	2.425685E-1	4.817493E-3	3.075565E-3	4.616336E-4	1.361107E-3	7.852217E-3	4.291027E-3	8.885620E-3
								
10/19/2017  17:44:51.871896	2.300840E-1	8.148562E-3	5.871495E-3	5.251340E-3	2.943452E-3	3.582310E-4	6.885227E-3	8.832442E-3
10/19/2017  17:44:51.872896	1.282954E-1	3.516202E-3	6.974504E-3	2.168289E-2	1.643249E-3	3.535938E-3	1.206672E-2	2.918087E-3
10/19/2017  17:44:51.873896	4.630177E-2	2.423264E-3	6.264781E-3	1.422691E-2	7.301900E-3	5.309343E-3	1.387766E-3	7.002889E-3
10/19/2017  17:44:51.874896	4.134167E-1	1.234324E-2	4.730829E-3	7.109203E-3	9.600172E-5	1.948283E-3	7.589493E-3	6.470155E-3
10/19/2017  17:44:51.875896	6.066386E-1	1.804683E-3	2.898019E-3	1.865229E-3	6.373745E-3	1.858276E-3	6.726630E-3	4.881888E-4
10/19/2017  17:44:51.876896	2.977214E-1	1.047108E-2	4.673569E-3	9.160385E-3	2.190156E-4	1.007302E-2	1.533737E-3	1.174666E-3
10/19/2017  17:44:51.877896	8.174350E-1	9.729342E-4	5.064005E-3	5.239239E-3	5.725714E-3	8.185976E-3	3.882608E-3	3.996804E-3
10/19/2017  17:44:51.878896	2.595577E-1	3.081319E-3	9.372533E-3	5.681068E-3	1.208329E-3	9.759346E-3	9.612994E-4	9.078323E-4
10/19/2017  17:44:51.879896	2.617752E-1	2.107243E-3	5.337346E-3	6.489722E-3	3.423979E-3	1.267720E-5	8.378553E-4	8.944212E-3
10/19/2017  17:44:51.880896	1.030926E-1	8.645203E-3	7.708376E-3	1.317780E-3	1.048995E-2	1.915467E-3	4.184732E-3	9.144209E-4
10/19/2017  17:44:51.881896	7.218498E-1	1.542395E-3	8.527829E-4	6.049665E-3	2.170771E-3	1.305972E-2	4.925009E-3	2.924731E-3
10/19/2017  17:44:51.882896	5.439299E-2	1.365199E-2	5.917921E-3	2.090518E-3	9.787898E-3	4.893693E-3	3.042965E-3	3.904052E-3
10/19/2017  17:44:51.883896	7.058767E-1	3.806796E-3	3.621436E-3	2.491313E-3	4.412761E-3	1.147579E-2	3.145936E-4	1.389478E-4
10/19/2017  17:44:51.884896	7.592626E-1	1.266827E-2	9.257740E-3	2.934356E-3	1.265600E-3	1.554181E-3	6.308892E-3	6.192222E-3
10/19/2017  17:44:51.885896	6.263931E-1	1.751461E-3	2.031448E-3	9.970114E-3	3.357919E-3	9.485639E-3	2.604083E-3	8.421039E-3
10/19/2017  17:44:51.886896	3.766174E-1	5.062302E-3	7.474240E-4	6.791285E-4	1.208779E-2	6.401125E-3	5.888754E-3	6.580900E-3
10/19/2017  17:44:51.887896	3.337373E-1	2.730708E-3	1.009832E-2	7.019764E-4	5.585205E-3	7.499876E-3	5.920724E-4	9.211981E-3
10/19/2017  17:44:51.888896	8.894700E-1	7.008795E-3	1.814140E-3	2.650562E-3	9.959310E-3	6.600318E-3	1.046434E-2	4.174688E-3
10/19/2017  17:44:51.889896	3.784907E-1	4.415775E-3	7.502803E-3	4.590888E-3	2.861991E-4	1.274566E-2	8.419168E-3	1.261112E-3
10/19/2017  17:44:51.890896	9.088396E-2	1.559475E-3	2.607487E-3	1.462947E-3	6.593804E-3	4.571597E-3	3.334577E-3	2.465832E-3
10/19/2017  17:44:51.891896	9.022039E-1	7.061274E-3	6.185918E-4	6.486727E-3	4.095980E-3	1.076274E-2	2.066739E-3	8.991772E-3
10/19/2017  17:44:51.892896	3.069402E-1	1.749552E-3	5.407527E-4	9.279415E-3	6.224440E-3	4.451238E-3	5.167066E-3	3.185850E-3
10/19/2017  17:44:51.893896	2.706346E-1	1.170985E-2	3.544688E-3	3.771565E-3	9.107484E-3	1.511513E-3	1.136748E-2	7.684256E-4
10/19/2017  17:44:51.894896	1.777566E-2	9.655500E-4	9.666304E-3	6.581727E-3	1.740714E-3	4.315078E-3	3.457881E-3	2.722892E-3
10/19/2017  17:44:51.895896	8.226028E-2	5.728114E-3	1.546846E-2	1.231224E-2	4.905372E-3	6.036449E-4	1.619939E-2	5.499661E-3
10/19/2017  17:44:51.896896	1.983026E-1	1.328163E-3	1.349637E-2	5.355214E-3	2.483917E-3	7.668937E-3	1.503186E-3	8.152644E-3
10/19/2017  17:44:51.897896	1.591962E-1	4.654632E-4	9.017627E-3	9.817377E-3	5.296261E-3	9.354157E-3	1.435513E-2	2.875020E-3
10/19/2017  17:44:51.898896	1.732868E-1	3.817904E-3	6.166243E-3	6.240644E-3	1.160437E-2	1.511689E-3	3.047363E-3	5.333973E-3
10/19/2017  17:44:51.899896	9.730412E-1	1.439332E-3	8.017119E-3	2.494913E-3	7.615848E-3	2.433502E-3	6.153302E-3	7.671193E-3
10/19/2017  17:44:51.900896	2.250804E-1	1.021626E-2	2.086551E-3	3.680855E-3	7.689389E-4	3.347569E-3	7.394558E-4	1.097243E-2
10/19/2017  17:44:51.901896	5.626515E-3	6.489508E-3	8.202408E-3	4.083865E-3	5.254748E-4	7.477633E-4	4.914057E-3	7.998519E-3
10/19/2017  17:44:51.902896	7.883131E-2	4.401093E-3	1.290888E-3	1.398643E-2	3.453858E-4	7.739810E-4	3.016588E-3	4.989749E-3
10/19/2017  17:44:51.903896	1.171240E-1	1.514594E-2	1.098857E-2	5.731592E-3	1.217162E-2	2.493915E-3	4.784160E-4	3.285012E-3
								
10/19/2017  17:44:51.904896	2.358891E-1	2.342793E-3	5.508685E-4	1.596146E-2	5.754425E-3	4.204192E-4	6.648430E-4	6.043849E-3
10/19/2017  17:44:51.905896	9.308949E-2	5.096278E-3	5.720825E-3	7.918163E-3	6.310542E-3	5.211507E-3	1.187525E-3	1.128801E-3
10/19/2017  17:44:51.906896	4.807887E-1	1.048107E-2	6.472326E-3	5.738239E-3	2.107564E-3	5.752133E-3	2.110255E-3	8.057794E-3
10/19/2017  17:44:51.907896	2.062998E-1	2.946853E-3	1.592725E-3	1.642728E-3	1.461971E-2	1.584960E-3	1.627150E-3	3.031241E-3
10/19/2017  17:44:51.908896	6.752091E-2	1.905637E-3	5.583139E-3	1.095794E-2	4.534144E-3	5.110926E-3	5.877482E-3	2.315621E-3
10/19/2017  17:44:51.909896	4.985404E-1	2.676842E-3	7.426168E-3	6.338935E-3	1.395289E-2	1.225122E-3	3.918809E-3	5.364693E-3
10/19/2017  17:44:51.910896	2.296150E-1	9.087919E-3	1.762426E-3	1.640329E-2	4.449733E-3	6.986240E-3	2.479796E-3	1.321205E-2
10/19/2017  17:44:51.911896	5.714338E-1	4.900196E-4	2.053190E-3	9.466301E-4	1.103739E-4	2.127964E-3	4.259996E-3	7.383920E-3
10/19/2017  17:44:51.912896	1.072642E+0	3.813758E-4	4.114367E-4	3.649679E-3	1.288953E-3	1.601831E-3	3.006908E-3	8.959693E-3
10/19/2017  17:44:51.913896	4.078682E-1	1.655902E-3	1.558481E-3	8.808433E-4	3.709590E-3	4.779562E-3	4.002727E-3	3.448033E-4
10/19/2017  17:44:51.914896	3.243841E-1	6.649053E-3	4.298375E-3	3.437998E-3	5.345683E-3	2.171295E-3	1.396526E-2	8.756122E-4
10/19/2017  17:44:51.915896	4.099344E-1	6.941078E-3	1.567486E-2	9.417114E-3	8.590246E-3	5.732393E-3	3.666515E-3	6.520209E-3
10/19/2017  17:44:51.916896	4.042881E-1	1.167375E-2	2.704611E-3	1.052679E-2	3.906568E-3	8.146976E-3	1.111656E-2	1.247194E-2
10/19/2017  17:44:51.917896	7.099958E-1	4.257319E-3	1.993312E-4	2.445901E-4	2.717776E-3	3.050429E-3	5.330110E-3	9.385508E-4
10/19/2017  17:44:51.918896	8.651924E-1	1.049165E-2	5.887719E-3	4.154689E-3	2.247410E-3	3.632949E-3	6.457149E-4	3.923443E-4
10/19/2017  17:44:51.919896	6.695698E-2	7.521985E-3	2.739925E-3	3.434405E-3	8.882701E-3	1.628207E-2	4.208844E-3	6.405957E-4
10/19/2017  17:44:51.920896	1.344060E+0	1.204445E-2	1.153783E-2	7.669008E-3	8.311889E-4	9.875008E-4	9.973151E-3	2.960261E-3
10/19/2017  17:44:51.921896	8.039986E-1	3.793790E-3	7.330603E-3	8.538817E-3	6.282357E-3	3.641904E-3	2.169125E-3	7.055055E-3
10/19/2017  17:44:51.922896	3.969697E-1	3.627553E-3	1.920662E-3	1.866236E-3	7.809437E-3	5.049337E-3	5.266202E-4	2.913530E-3
10/19/2017  17:44:51.923896	4.306877E-1	6.060711E-3	3.463342E-3	1.692479E-3	4.374826E-3	5.508268E-3	1.107561E-4	6.623522E-3
10/19/2017  17:44:51.924896	4.233203E-1	3.380493E-3	2.106430E-3	2.472866E-3	3.575867E-3	6.894415E-4	3.788867E-3	1.180520E-2
10/19/2017  17:44:51.925896	1.574487E+0	4.682397E-3	4.907040E-3	3.269068E-3	2.850091E-3	7.496764E-3	6.311155E-3	1.015775E-2
10/19/2017  17:44:51.926896	1.597008E+0	2.625177E-3	7.191126E-3	5.853723E-4	8.176376E-3	2.210161E-3	8.900348E-7	3.739052E-3
10/19/2017  17:44:51.927896	8.250909E-1	2.719898E-3	4.645394E-5	1.297648E-2	6.734597E-4	4.067104E-3	2.115490E-3	1.970389E-3
10/19/2017  17:44:51.928896	6.993341E-1	3.634752E-3	1.049459E-2	1.396158E-2	5.914233E-3	9.175206E-4	2.765007E-3	2.698903E-3
10/19/2017  17:44:51.929896	4.720961E-1	9.350976E-3	4.265144E-5	1.332101E-2	5.528526E-3	1.042254E-3	1.511231E-3	1.303663E-2
10/19/2017  17:44:51.930896	3.116507E-2	3.837993E-3	4.561384E-3	3.039287E-4	1.013624E-2	1.891146E-3	7.371743E-3	4.498223E-3
10/19/2017  17:44:51.931896	2.704725E-1	4.861242E-4	9.689260E-4	3.219556E-3	1.926211E-3	7.528494E-3	1.833287E-3	4.958086E-3
10/19/2017  17:44:51.932896	2.315804E-1	9.153855E-3	6.865689E-4	1.059987E-3	1.111501E-2	3.677075E-3	3.360159E-3	9.082894E-3
10/19/2017  17:44:51.933896	1.447993E-1	3.679965E-3	2.440945E-3	1.765730E-3	2.344885E-3	6.234151E-3	2.007226E-3	4.758466E-3
10/19/2017  17:44:51.934896	4.446670E-1	1.198340E-2	2.706394E-3	8.173059E-3	1.247356E-2	4.751379E-3	8.959177E-3	2.521665E-3
10/19/2017  17:44:51.935896	3.364027E-2	7.436623E-3	3.571984E-4	1.476238E-3	2.413750E-3	5.076335E-3	9.079996E-3	2.990730E-3
10/19/2017  17:44:51.936896	1.027624E-1	7.340387E-4	3.776281E-3	1.282773E-3	1.334574E-3	5.182613E-3	6.076955E-4	1.221308E-3
								
10/19/2017  17:44:51.937896	4.119725E-1	1.046842E-2	8.002723E-3	9.063519E-4	9.412888E-3	3.035070E-3	6.486342E-3	2.256622E-4
10/19/2017  17:44:51.938896	2.578251E-1	6.554161E-3	2.488228E-3	3.851313E-3	2.917835E-3	1.647622E-2	5.454801E-3	9.737507E-3
10/19/2017  17:44:51.939896	2.174802E-1	4.532046E-3	9.155717E-3	1.549292E-3	2.309990E-3	3.078680E-3	1.369255E-2	4.817496E-3
10/19/2017  17:44:51.940896	2.970213E-2	3.029391E-3	4.777029E-4	6.684347E-3	1.802057E-3	8.936819E-3	2.926521E-4	4.566011E-3
10/19/2017  17:44:51.941896	7.941880E-2	5.304441E-3	2.352630E-3	2.816144E-3	6.119330E-4	1.641723E-4	5.963755E-3	1.005977E-2
10/19/2017  17:44:51.942896	2.317874E-1	9.843569E-3	7.071686E-4	8.438672E-3	3.963194E-3	1.682075E-3	2.710995E-3	8.089038E-3
10/19/2017  17:44:51.943896	3.496750E-1	1.626821E-2	5.326507E-4	3.123220E-3	6.417094E-3	7.553566E-3	1.812492E-3	5.947763E-3
10/19/2017  17:44:51.944896	2.153674E-1	1.125470E-2	4.358161E-3	1.043490E-2	2.260023E-3	1.420669E-3	4.876349E-3	1.974867E-4
10/19/2017  17:44:51.945896	1.048597E-1	1.259922E-3	1.707247E-3	2.155519E-3	1.347677E-2	5.142789E-3	2.518747E-3	7.174632E-3
10/19/2017  17:44:51.946896	2.235875E-1	1.037008E-3	1.320472E-3	7.680978E-3	1.016124E-3	1.330116E-3	9.163553E-3	7.094094E-3
10/19/2017  17:44:51.947896	2.534417E-2	4.800014E-3	9.977833E-4	3.640061E-3	6.888281E-3	4.702457E-3	4.517883E-4	1.136153E-2
10/19/2017  17:44:51.948896	2.568714E-2	3.317127E-3	3.681215E-3	6.293327E-3	1.122809E-2	6.090898E-3	2.343166E-3	1.046840E-3
10/19/2017  17:44:51.949896	1.459565E-2	3.446448E-5	2.224148E-3	6.610641E-3	3.080524E-3	4.258021E-3	2.665142E-3	5.341312E-3
10/19/2017  17:44:51.950896	3.032011E-3	1.965453E-3	6.858875E-3	1.915477E-3	1.560361E-3	9.150248E-3	5.191975E-4	7.210534E-3
10/19/2017  17:44:51.951896	2.292665E-1	4.964401E-3	4.166292E-3	7.169815E-3	9.510407E-3	3.498219E-3	6.431971E-3	2.981691E-4
10/19/2017  17:44:51.952896	2.262924E-1	7.665784E-3	5.799271E-4	4.109613E-3	1.388661E-3	7.037955E-3	8.457111E-3	5.963573E-3
10/19/2017  17:44:51.953896	5.149396E-1	8.739509E-3	5.650713E-3	1.012983E-2	3.808034E-3	6.349915E-4	8.304179E-4	2.722070E-3
10/19/2017  17:44:51.954896	1.188185E-1	7.397109E-3	3.045089E-3	1.943348E-3	7.357920E-4	2.635976E-3	3.985866E-3	1.836561E-3
10/19/2017  17:44:51.955896	1.547305E+0	1.277659E-3	1.407668E-2	6.541770E-4	8.532299E-4	2.374837E-3	6.609114E-3	4.839053E-3
10/19/2017  17:44:51.956896	1.168911E+0	4.576917E-4	4.470852E-3	7.653259E-3	2.900365E-3	2.722145E-3	4.350485E-3	4.452334E-3
10/19/2017  17:44:51.957896	3.701870E-1	8.083074E-3	7.558817E-3	1.285169E-2	3.914744E-3	4.170432E-4	6.676813E-3	1.220260E-2
10/19/2017  17:44:51.958896	6.105448E-1	1.394654E-3	1.151310E-3	8.377245E-3	5.807124E-3	2.340949E-3	6.501518E-3	6.194993E-4
10/19/2017  17:44:51.959896	3.570331E-1	5.114341E-3	2.352074E-3	3.105973E-3	1.217638E-3	6.519423E-4	7.353951E-5	8.428943E-3
10/19/2017  17:44:51.960896	1.094757E-1	9.451004E-4	9.127926E-3	3.884928E-3	1.758404E-3	4.381859E-3	3.845257E-3	7.506169E-3
10/19/2017  17:44:51.961896	3.078025E-1	5.696876E-3	3.342183E-3	3.980813E-3	1.471815E-3	1.771913E-3	2.117382E-3	4.617694E-3
10/19/2017  17:44:51.962896	3.260038E-1	1.265792E-2	8.543822E-3	8.413813E-3	1.275411E-2	5.194516E-4	3.622613E-3	7.585490E-3
10/19/2017  17:44:51.963896	2.223973E-1	7.409401E-4	4.854970E-3	1.164437E-2	9.785363E-3	1.787416E-3	2.224388E-3	4.405003E-4
10/19/2017  17:44:51.964896	8.623773E-2	8.741120E-3	1.376118E-3	1.031736E-3	1.478835E-2	1.688082E-3	3.119270E-3	2.104736E-6
10/19/2017  17:44:51.965896	2.188910E-1	3.856887E-3	7.090843E-3	2.712604E-3	3.515433E-3	2.165548E-4	2.660242E-3	2.266105E-3
10/19/2017  17:44:51.966896	2.501858E-1	3.452528E-3	2.033803E-3	6.485697E-3	1.047396E-2	1.252250E-3	4.023273E-3	1.443182E-3
10/19/2017  17:44:51.967896	2.048057E-1	4.354429E-3	1.142759E-2	1.529036E-3	6.189583E-3	2.333485E-3	6.491490E-3	7.719666E-4
10/19/2017  17:44:51.968896	2.683942E-1	8.711165E-3	3.870586E-3	3.695869E-3	3.831246E-3	8.396799E-3	4.582777E-3	2.226653E-3
10/19/2017  17:44:51.969896	1.140797E+0	1.475427E-3	6.985854E-3	1.728725E-2	2.483766E-5	3.395705E-3	6.987397E-3	1.148320E-3
								
10/19/2017  17:44:51.970896	9.845611E-1	1.737467E-3	7.648438E-3	9.502290E-3	3.510586E-3	2.002757E-3	8.131600E-3	7.885147E-4
10/19/2017  17:44:51.971896	4.664329E-1	2.109084E-3	4.083850E-3	2.118791E-2	2.758430E-3	3.167333E-3	4.680687E-3	3.792139E-3
10/19/2017  17:44:51.972896	1.409610E-1	3.841792E-3	4.966679E-3	4.468947E-4	8.451040E-3	1.604601E-3	9.868006E-3	4.804963E-3
10/19/2017  17:44:51.973896	4.388180E-1	5.264297E-3	3.058261E-3	1.520175E-3	7.704291E-4	9.455772E-3	3.484338E-5	3.761756E-3
10/19/2017  17:44:51.974896	1.033212E+0	1.742070E-3	8.384360E-3	4.110310E-3	1.657379E-3	1.346894E-3	1.441602E-4	3.121169E-3
10/19/2017  17:44:51.975896	5.966792E-1	3.442463E-3	7.299679E-3	1.354887E-3	2.989126E-3	1.177227E-4	2.258473E-4	8.952307E-3
10/19/2017  17:44:51.976896	3.043577E-1	6.144867E-3	1.722452E-3	1.559839E-2	7.475482E-3	6.753304E-3	4.256575E-3	1.590352E-3
10/19/2017  17:44:51.977896	2.414390E-2	1.273413E-2	5.119506E-3	8.995597E-3	1.451299E-2	5.490085E-3	4.322425E-3	5.082741E-3
10/19/2017  17:44:51.978896	2.677805E-1	3.190574E-3	7.220075E-3	5.264035E-3	1.282619E-3	4.053472E-4	8.034680E-3	7.212019E-3
10/19/2017  17:44:51.979896	9.661468E-2	1.495334E-2	1.858693E-3	3.568671E-3	4.855057E-3	1.084633E-2	3.031336E-3	2.064948E-3
10/19/2017  17:44:51.980896	4.925257E-3	7.558750E-4	5.287253E-3	2.752852E-3	9.380805E-3	1.478390E-2	3.530175E-3	1.132204E-2
10/19/2017  17:44:51.981896	8.008894E-1	3.834697E-3	3.063565E-3	1.386146E-2	6.751912E-3	1.214013E-2	2.517077E-3	1.412999E-3
10/19/2017  17:44:51.982896	5.395361E-1	2.751728E-3	9.868191E-3	9.291862E-3	4.039371E-3	1.688950E-3	8.019331E-3	7.080167E-3
10/19/2017  17:44:51.983896	2.086404E-1	7.149066E-4	8.878409E-3	6.809443E-3	2.024377E-3	6.818035E-3	7.278240E-3	3.854574E-3
10/19/2017  17:44:51.984896	1.156618E-1	9.496591E-3	3.659637E-3	3.234607E-3	7.579288E-3	6.592204E-3	2.028231E-3	6.561748E-3
10/19/2017  17:44:51.985896	1.636715E-1	1.289751E-4	9.808970E-3	6.913214E-3	9.689190E-3	4.279231E-3	3.407792E-3	2.472820E-3
10/19/2017  17:44:51.986896	3.794634E-1	3.892010E-4	6.825817E-3	8.500364E-3	4.606716E-3	2.454135E-3	8.430501E-3	1.788623E-3
10/19/2017  17:44:51.987896	1.161896E-2	6.499313E-3	2.487932E-3	1.369944E-3	4.964413E-3	2.922648E-3	1.270529E-3	8.704861E-3
10/19/2017  17:44:51.988896	3.328803E-1	1.633975E-3	2.369290E-3	7.405211E-3	1.295138E-3	7.935906E-3	7.808037E-4	7.670426E-3
10/19/2017  17:44:51.989896	3.772458E-1	7.540952E-3	1.113866E-3	9.421066E-3	7.039771E-3	1.013862E-2	3.846432E-3	5.105258E-3
10/19/2017  17:44:51.990896	7.693399E-1	2.533714E-3	7.755838E-3	5.190039E-3	8.059269E-3	1.233549E-2	2.736790E-3	9.135753E-4
10/19/2017  17:44:51.991896	4.909266E-1	1.072108E-2	3.484282E-3	7.797985E-3	2.554426E-3	9.441815E-3	6.651349E-3	3.429771E-3
10/19/2017  17:44:51.992896	1.860033E-1	2.128953E-3	1.882580E-3	8.714377E-3	3.125011E-3	2.057796E-3	5.576142E-4	2.238658E-3
10/19/2017  17:44:51.993896	3.777947E-1	2.049417E-3	9.732826E-4	5.527948E-3	4.384694E-3	2.620842E-3	8.115815E-4	1.564261E-3
10/19/2017  17:44:51.994896	3.464038E-1	9.622244E-3	2.261934E-3	3.818658E-3	3.200188E-3	1.218807E-3	1.086963E-2	9.526091E-4
10/19/2017  17:44:51.995896	2.186836E-1	1.981302E-3	4.741794E-3	3.549290E-3	4.457671E-3	1.174259E-2	4.013180E-3	3.795434E-4
10/19/2017  17:44:51.996896	2.913117E-2	1.282378E-2	8.254125E-3	2.559005E-4	3.227727E-3	3.341065E-3	4.677987E-3	4.985665E-5
10/19/2017  17:44:51.997896	3.886717E-1	5.266405E-3	7.564404E-3	1.392831E-3	3.700043E-4	7.577273E-3	9.691899E-3	6.319531E-3
10/19/2017  17:44:51.998896	1.108988E-1	7.978041E-3	1.520260E-3	1.368921E-2	1.422003E-3	1.043983E-2	3.120168E-5	3.882365E-4
10/19/2017  17:44:51.999896	2.326604E-2	2.941700E-3	1.004730E-3	3.641096E-3	4.332211E-3	8.607269E-3	1.991159E-3	6.468914E-3
10/19/2017  17:44:52.000896	2.695432E-1	1.834689E-2	4.332589E-4	9.654166E-4	3.656755E-4	5.299297E-3	9.901587E-4	3.875053E-4
10/19/2017  17:44:52.001896	4.217288E-1	6.249797E-3	1.479623E-6	9.769974E-4	5.307445E-3	3.409616E-3	7.504032E-4	6.580463E-3
10/19/2017  17:44:52.002896	7.149745E-1	1.684560E-2	3.104633E-4	6.278980E-3	7.058865E-5	2.037173E-3	6.503598E-3	8.146871E-3
								
10/19/2017  17:44:52.003896	6.217343E-1	1.822997E-3	2.509788E-3	9.109266E-3	2.678294E-3	1.192707E-3	2.568209E-3	2.423415E-3
10/19/2017  17:44:52.004896	2.787073E-2	1.700525E-3	8.286475E-3	2.103652E-3	2.007081E-2	3.435402E-3	1.414678E-5	5.376954E-3
10/19/2017  17:44:52.005896	6.356607E-1	2.120733E-3	1.901037E-3	1.230365E-2	7.443767E-4	5.985348E-3	1.530228E-3	7.721864E-3
10/19/2017  17:44:52.006896	4.761961E-1	3.867648E-3	8.066838E-3	1.000348E-2	9.426312E-3	4.765202E-3	7.699260E-3	5.503108E-3
10/19/2017  17:44:52.007896	4.316847E-1	7.321537E-3	3.169933E-3	4.869869E-3	1.040018E-3	6.936152E-3	5.249652E-3	3.134249E-3
10/19/2017  17:44:52.008896	2.520550E-1	5.084674E-3	4.112464E-3	3.263791E-3	6.150303E-7	1.033410E-2	7.131466E-4	1.455109E-2
10/19/2017  17:44:52.009896	1.556205E-1	1.829056E-3	1.770582E-3	2.195745E-2	9.528430E-3	3.941751E-3	1.995228E-4	3.913064E-3
10/19/2017  17:44:52.010896	5.105806E-1	2.016019E-3	3.211711E-3	1.056532E-2	4.616358E-3	2.364632E-3	6.767233E-3	4.995625E-3
10/19/2017  17:44:52.011896	5.894049E-1	4.448113E-5	6.188042E-3	7.681219E-3	2.758797E-3	5.130601E-3	2.204876E-3	1.271417E-3
10/19/2017  17:44:52.012896	9.989222E-2	9.083928E-4	1.251883E-2	1.236133E-3	6.986137E-3	1.362474E-2	8.328646E-4	1.095959E-3
10/19/2017  17:44:52.013896	9.366279E-1	1.136790E-2	2.798301E-3	1.107111E-2	6.296338E-3	6.023603E-3	1.720587E-2	5.542756E-3
10/19/2017  17:44:52.014896	2.951695E-1	6.724117E-3	4.379226E-3	4.006547E-3	8.765965E-3	1.574607E-3	7.381458E-3	4.849904E-3
10/19/2017  17:44:52.015896	3.415130E-1	6.829567E-3	1.121962E-2	7.055017E-3	7.239870E-4	9.261669E-3	4.065912E-3	8.000302E-4
10/19/2017  17:44:52.016896	9.489676E-1	6.869474E-4	5.980355E-3	3.563204E-3	8.406266E-3	7.005379E-3	3.837359E-3	1.781107E-3
10/19/2017  17:44:52.017896	6.600081E-1	5.008982E-3	1.012149E-2	1.356779E-2	1.758700E-3	9.111181E-3	5.471286E-3	3.213622E-3
10/19/2017  17:44:52.018896	4.640108E-1	4.065618E-3	1.317645E-2	5.739706E-3	7.957544E-3	1.027944E-2	1.001498E-2	1.014054E-2
10/19/2017  17:44:52.019896	4.205315E-1	6.519260E-3	1.848918E-3	1.530993E-2	6.846934E-3	1.894679E-3	1.885356E-3	4.581762E-3
10/19/2017  17:44:52.020896	6.041430E-1	9.699617E-3	3.366679E-3	3.965954E-3	2.804096E-3	7.550345E-4	1.371914E-3	1.288883E-3
10/19/2017  17:44:52.021896	1.692374E-1	1.488262E-2	3.602452E-3	5.264637E-3	5.973306E-4	2.793998E-4	6.303766E-4	5.164654E-3
10/19/2017  17:44:52.022896	3.787058E-1	1.246172E-3	2.555019E-3	2.365852E-3	5.293571E-3	4.057438E-3	3.132362E-4	2.899202E-3
10/19/2017  17:44:52.023896	7.672563E-1	8.716679E-4	4.223734E-3	3.738798E-3	2.267293E-4	3.750091E-4	2.977219E-3	2.378393E-3
10/19/2017  17:44:52.024896	1.406588E+0	5.954961E-3	4.999910E-3	7.229477E-4	4.450699E-3	7.003368E-5	2.449364E-3	6.034425E-4
10/19/2017  17:44:52.025896	1.263905E+0	1.660100E-3	2.080004E-3	2.698819E-3	6.908714E-3	1.852864E-3	7.955055E-3	7.544386E-3
10/19/2017  17:44:52.026896	4.853935E-1	7.075564E-3	1.201103E-2	6.493205E-4	6.252056E-3	6.713532E-3	8.441156E-3	8.160081E-3
10/19/2017  17:44:52.027896	1.543239E+0	8.192726E-3	3.673643E-3	3.390773E-3	1.799476E-3	8.939647E-3	5.859426E-3	9.099441E-3
10/19/2017  17:44:52.028896	1.067440E+0	2.862494E-3	7.721733E-3	3.168810E-3	7.054768E-3	1.818183E-3	6.169413E-3	1.110943E-2
10/19/2017  17:44:52.029896	3.256009E-1	4.671172E-3	7.934476E-3	9.088410E-3	2.214542E-3	2.697212E-3	1.030337E-3	3.431508E-3
10/19/2017  17:44:52.030896	8.816210E-2	2.880344E-3	1.273448E-2	3.768356E-3	5.762842E-3	2.766790E-3	1.534543E-2	1.903144E-3
10/19/2017  17:44:52.031896	5.289995E-1	5.453033E-3	8.353584E-3	1.924661E-3	4.532740E-3	3.861408E-3	1.255254E-3	1.006038E-3
10/19/2017  17:44:52.032896	8.420799E-1	3.532351E-3	7.069253E-3	6.318726E-4	1.607813E-3	2.135942E-3	5.445213E-3	1.260596E-3
10/19/2017  17:44:52.033896	1.099940E+0	8.470760E-4	7.885158E-3	2.090273E-5	3.272815E-3	1.192902E-3	1.621107E-3	3.471789E-3
10/19/2017  17:44:52.034896	4.674785E-1	1.208271E-3	4.374498E-3	3.486430E-3	3.961733E-3	1.220292E-3	8.759498E-3	8.467831E-5
10/19/2017  17:44:52.035896	1.285235E-1	3.386071E-3	9.551743E-3	8.735100E-4	3.993140E-3	7.170476E-3	3.735270E-3	1.997198E-3
								
10/19/2017  17:44:52.036896	5.448452E-1	5.489286E-3	5.837323E-3	3.658487E-3	2.531192E-3	3.763988E-3	3.215697E-3	6.868287E-3
10/19/2017  17:44:52.037896	3.656993E-1	3.605157E-3	2.902957E-3	7.699918E-4	3.385081E-3	1.205763E-2	7.219946E-4	2.317585E-3
10/19/2017  17:44:52.038896	3.079052E-1	2.083073E-2	1.336115E-3	2.748189E-3	3.535468E-3	5.717119E-5	5.188336E-3	5.779299E-3
