Parameters: 	Upper Cutoff: : 500	Lower Cutoff: : 0	Sample Rate (HZ)1000	Frames Per Second: 30	Display Window Size (S)400	MVC Window Size (s): 400	Seconds To Acquire MVC: 3	Display Channel: 0
waveform	[0]	[1]	[2]	[3]	[4]	[5]	[6]	[7]
t0	10/19/2017  17:42:53.508924	10/19/2017  17:42:53.508924	10/19/2017  17:42:53.508924	10/19/2017  17:42:53.508924	10/19/2017  17:42:53.508924	10/19/2017  17:42:53.508924	10/19/2017  17:42:53.508924	10/19/2017  17:42:53.508924
delta t	0.001000	0.001000	0.001000	0.001000	0.001000	0.001000	0.001000	0.001000

time	Y[0]	Y[1]	Y[2]	Y[3]	Y[4]	Y[5]	Y[6]	Y[7]
10/19/2017  17:42:53.508041	-6.959106E-1	1.319332E-2	1.900811E-2	-1.012869E+1	1.967868E-2	1.946206E-2	7.205661E-2	3.927877E-2
10/19/2017  17:42:53.509041	-6.247347E-1	5.561801E-3	1.391770E-2	-1.013378E+1	2.477858E-2	1.437409E-2	7.459952E-2	3.673486E-2
10/19/2017  17:42:53.510041	-7.566315E-2	1.573716E-2	1.391770E-2	-1.012869E+1	3.242842E-2	1.946206E-2	6.951371E-2	2.401527E-2
10/19/2017  17:42:53.511041	2.370026E-1	2.082484E-2	2.155331E-2	-1.013632E+1	1.967868E-2	2.963800E-2	7.205661E-2	3.164702E-2
10/19/2017  17:42:53.512041	4.454464E-1	1.064948E-2	2.409852E-2	-1.014142E+1	9.478889E-3	1.946206E-2	8.222822E-2	3.164702E-2
10/19/2017  17:42:53.513041	1.421573E+0	5.561801E-3	1.137250E-2	-1.013887E+1	1.967868E-2	9.286120E-3	7.205661E-2	3.927877E-2
10/19/2017  17:42:53.514041	4.403624E-1	1.319332E-2	1.900811E-2	-1.013632E+1	2.477858E-2	2.455003E-2	6.697081E-2	3.927877E-2
10/19/2017  17:42:53.515041	-3.756189E-1	2.082484E-2	2.409852E-2	-1.013887E+1	2.222863E-2	2.963800E-2	7.205661E-2	2.401527E-2
10/19/2017  17:42:53.516041	-3.603669E-1	1.319332E-2	1.900811E-2	-1.013632E+1	1.457878E-2	1.691808E-2	7.714242E-2	2.655919E-2
10/19/2017  17:42:53.517041	2.115826E-1	8.105642E-3	1.391770E-2	-1.014142E+1	1.967868E-2	9.286120E-3	6.951371E-2	3.927877E-2
10/19/2017  17:42:53.518041	1.190252E+0	8.105642E-3	1.391770E-2	-1.013887E+1	2.222863E-2	2.200605E-2	6.697081E-2	3.164702E-2
10/19/2017  17:42:53.519041	1.152122E+0	2.082484E-2	1.646291E-2	-1.013632E+1	2.222863E-2	2.963800E-2	7.968532E-2	2.655919E-2
10/19/2017  17:42:53.520041	-2.154730E-1	1.064948E-2	4.191494E-2	-1.012869E+1	2.222863E-2	1.437409E-2	7.714242E-2	3.673486E-2
10/19/2017  17:42:53.521041	-8.052165E-1	8.105642E-3	1.391770E-2	-1.012869E+1	2.987847E-2	1.437409E-2	6.951371E-2	3.164702E-2
10/19/2017  17:42:53.522041	-7.340406E-1	2.082484E-2	1.191689E-3	-1.014396E+1	1.967868E-2	2.963800E-2	6.951371E-2	2.147136E-2
10/19/2017  17:42:53.523041	-3.603669E-1	1.828100E-2	2.155331E-2	-1.013632E+1	1.712873E-2	2.455003E-2	7.968532E-2	3.164702E-2
10/19/2017  17:42:53.524041	-1.265031E-1	5.561801E-3	2.155331E-2	-1.012614E+1	2.477858E-2	2.200605E-2	7.205661E-2	4.182269E-2
10/19/2017  17:42:53.525041	1.839076E-2	1.064948E-2	1.391770E-2	-1.014142E+1	2.987847E-2	2.963800E-2	6.951371E-2	2.655919E-2
10/19/2017  17:42:53.526041	5.143673E-2	1.319332E-2	2.409852E-2	-1.013632E+1	1.712873E-2	6.742135E-3	7.714242E-2	1.892744E-2
10/19/2017  17:42:53.527041	2.039566E-1	-2.069720E-3	1.900811E-2	-1.013378E+1	1.712873E-2	2.200605E-2	7.205661E-2	3.164702E-2
10/19/2017  17:42:53.528041	3.310565E-1	1.064948E-2	2.155331E-2	-1.013887E+1	2.222863E-2	2.200605E-2	7.205661E-2	2.401527E-2
10/19/2017  17:42:53.529041	2.090406E-1	1.319332E-2	2.155331E-2	-1.012869E+1	2.732853E-2	1.437409E-2	8.222822E-2	3.164702E-2
10/19/2017  17:42:53.530041	-8.074715E-2	8.105642E-3	1.391770E-2	-1.013887E+1	1.967868E-2	1.946206E-2	7.205661E-2	3.927877E-2
10/19/2017  17:42:53.531041	-1.925950E-1	2.082484E-2	1.391770E-2	-1.013632E+1	2.222863E-2	2.200605E-2	6.188501E-2	3.164702E-2
10/19/2017  17:42:53.532041	-2.129310E-1	1.064948E-2	1.391770E-2	-1.013378E+1	2.222863E-2	2.200605E-2	7.968532E-2	2.910311E-2
10/19/2017  17:42:53.533041	-1.722591E-1	8.105642E-3	1.646291E-2	-1.013123E+1	1.967868E-2	1.437409E-2	7.968532E-2	1.892744E-2
10/19/2017  17:42:53.534041	-3.476569E-1	1.064948E-2	8.827299E-3	-1.013632E+1	2.477858E-2	2.455003E-2	7.205661E-2	2.401527E-2
10/19/2017  17:42:53.535041	1.378647E-1	8.105642E-3	1.137250E-2	-1.013632E+1	1.967868E-2	2.455003E-2	7.714242E-2	2.655919E-2
10/19/2017  17:42:53.536041	5.623783E-1	1.064948E-2	1.646291E-2	-1.012869E+1	2.477858E-2	1.691808E-2	7.968532E-2	3.164702E-2
10/19/2017  17:42:53.537041	9.538459E-1	1.828100E-2	1.900811E-2	-1.013632E+1	2.987847E-2	2.709402E-2	6.697081E-2	3.164702E-2
10/19/2017  17:42:53.538041	7.123561E-1	2.082484E-2	1.900811E-2	-1.014142E+1	1.967868E-2	1.946206E-2	7.714242E-2	3.419094E-2
10/19/2017  17:42:53.539041	-2.586870E-1	2.082484E-2	1.646291E-2	-1.013378E+1	1.457878E-2	1.691808E-2	7.968532E-2	3.419094E-2
10/19/2017  17:42:53.540041	-3.196949E-1	1.573716E-2	1.391770E-2	-1.013887E+1	2.477858E-2	2.455003E-2	7.714242E-2	3.164702E-2
								
10/19/2017  17:42:53.541041	-3.832449E-1	2.082484E-2	2.409852E-2	-1.014651E+1	2.477858E-2	3.218199E-2	6.951371E-2	3.164702E-2
10/19/2017  17:42:53.542041	-1.087091E-1	1.319332E-2	2.155331E-2	-1.013378E+1	1.457878E-2	2.200605E-2	7.714242E-2	3.164702E-2
10/19/2017  17:42:53.543041	-1.239611E-1	8.105642E-3	1.137250E-2	-1.013123E+1	2.222863E-2	-8.898203E-4	7.459952E-2	3.164702E-2
10/19/2017  17:42:53.544041	2.522546E-1	5.561801E-3	1.137250E-2	-1.013887E+1	2.477858E-2	1.946206E-2	6.951371E-2	3.164702E-2
10/19/2017  17:42:53.545041	4.126874E-2	1.319332E-2	2.155331E-2	-1.013887E+1	2.222863E-2	3.472597E-2	7.459952E-2	3.419094E-2
10/19/2017  17:42:53.546041	-4.515918E-2	2.591253E-2	2.155331E-2	-1.012614E+1	2.222863E-2	1.437409E-2	7.968532E-2	3.673486E-2
10/19/2017  17:42:53.547041	-7.057916E-2	8.105642E-3	6.282096E-3	-1.013123E+1	2.732853E-2	1.437409E-2	6.697081E-2	2.401527E-2
10/19/2017  17:42:53.548041	-8.074715E-2	3.017961E-3	1.900811E-2	-1.013887E+1	1.967868E-2	2.963800E-2	7.205661E-2	2.655919E-2
10/19/2017  17:42:53.549041	4.889474E-2	8.105642E-3	2.664372E-2	-1.012869E+1	1.712873E-2	2.455003E-2	8.222822E-2	2.910311E-2
10/19/2017  17:42:53.550041	2.093276E-2	8.105642E-3	1.900811E-2	-1.012614E+1	2.987847E-2	1.437409E-2	7.968532E-2	3.927877E-2
10/19/2017  17:42:53.551041	2.347476E-2	1.064948E-2	1.391770E-2	-1.013887E+1	2.732853E-2	1.946206E-2	6.697081E-2	2.910311E-2
10/19/2017  17:42:53.552041	-3.244919E-2	1.319332E-2	1.391770E-2	-1.013632E+1	1.712873E-2	2.709402E-2	7.205661E-2	3.164702E-2
10/19/2017  17:42:53.553041	-1.722591E-1	1.319332E-2	1.900811E-2	-1.014905E+1	1.967868E-2	1.691808E-2	7.459952E-2	2.910311E-2
10/19/2017  17:42:53.554041	-9.854113E-2	1.319332E-2	2.155331E-2	-1.012614E+1	3.242842E-2	2.455003E-2	6.951371E-2	4.691052E-2
10/19/2017  17:42:53.555041	1.836206E-1	2.082484E-2	2.664372E-2	-1.013123E+1	2.222863E-2	2.963800E-2	6.951371E-2	2.910311E-2
10/19/2017  17:42:53.556041	6.183022E-1	1.064948E-2	2.155331E-2	-1.013632E+1	1.967868E-2	2.455003E-2	7.968532E-2	2.147136E-2
10/19/2017  17:42:53.557041	7.784481E-1	8.105642E-3	1.900811E-2	-1.013632E+1	2.222863E-2	9.286120E-3	7.968532E-2	3.673486E-2
10/19/2017  17:42:53.558041	5.649203E-1	8.105642E-3	1.900811E-2	-1.013378E+1	2.987847E-2	2.455003E-2	6.951371E-2	3.164702E-2
10/19/2017  17:42:53.559041	-5.103448E-1	1.828100E-2	1.646291E-2	-1.014905E+1	2.222863E-2	2.709402E-2	8.477112E-2	2.401527E-2
10/19/2017  17:42:53.560041	-1.003492E+0	-4.613560E-3	1.646291E-2	-1.013887E+1	1.457878E-2	1.437409E-2	7.968532E-2	3.927877E-2
10/19/2017  17:42:53.561041	-1.875110E-1	5.561801E-3	1.137250E-2	-1.013378E+1	1.967868E-2	1.691808E-2	6.188501E-2	3.927877E-2
10/19/2017  17:42:53.562041	-2.739390E-1	2.082484E-2	1.137250E-2	-1.014905E+1	2.477858E-2	3.472597E-2	6.697081E-2	2.401527E-2
10/19/2017  17:42:53.563041	-1.112511E-1	2.082484E-2	2.409852E-2	-1.014396E+1	2.222863E-2	2.709402E-2	7.459952E-2	2.401527E-2
10/19/2017  17:42:53.564041	3.056365E-1	5.561801E-3	2.409852E-2	-1.013123E+1	1.457878E-2	1.946206E-2	7.968532E-2	3.419094E-2
10/19/2017  17:42:53.565041	6.767682E-1	-7.157401E-3	1.900811E-2	-1.013123E+1	1.967868E-2	1.691808E-2	6.951371E-2	3.673486E-2
10/19/2017  17:42:53.566041	9.538459E-1	1.828100E-2	1.137250E-2	-1.013378E+1	2.222863E-2	1.691808E-2	7.459952E-2	2.401527E-2
10/19/2017  17:42:53.567041	2.802165E-1	3.863173E-2	1.900811E-2	-1.014396E+1	2.987847E-2	2.200605E-2	7.714242E-2	3.164702E-2
10/19/2017  17:42:53.568041	1.887046E-1	1.064948E-2	1.900811E-2	-1.013378E+1	2.222863E-2	2.455003E-2	7.205661E-2	3.164702E-2
10/19/2017  17:42:53.569041	-1.265031E-1	4.741205E-4	1.900811E-2	-1.014905E+1	1.967868E-2	2.455003E-2	7.459952E-2	2.655919E-2
10/19/2017  17:42:53.570041	-2.129310E-1	1.319332E-2	1.137250E-2	-1.014396E+1	2.987847E-2	2.709402E-2	6.951371E-2	2.401527E-2
10/19/2017  17:42:53.571041	9.719269E-2	2.082484E-2	2.155331E-2	-1.014142E+1	2.987847E-2	2.963800E-2	8.477112E-2	2.401527E-2
10/19/2017  17:42:53.572041	5.445843E-1	8.105642E-3	2.664372E-2	-1.013123E+1	1.202884E-2	1.437409E-2	7.968532E-2	4.182269E-2
10/19/2017  17:42:53.573041	-3.244919E-2	8.105642E-3	1.391770E-2	-1.013378E+1	1.457878E-2	1.691808E-2	6.188501E-2	2.910311E-2
								
10/19/2017  17:42:53.574041	-8.583114E-2	1.828100E-2	1.137250E-2	-1.013632E+1	2.987847E-2	2.709402E-2	6.951371E-2	2.401527E-2
10/19/2017  17:42:53.575041	-1.112511E-1	1.573716E-2	2.664372E-2	-1.014396E+1	1.457878E-2	2.200605E-2	7.968532E-2	4.945444E-2
10/19/2017  17:42:53.576041	3.138778E-3	3.017961E-3	2.664372E-2	-1.011341E+1	1.457878E-2	1.946206E-2	7.205661E-2	3.927877E-2
10/19/2017  17:42:53.577041	-3.095269E-1	1.319332E-2	2.409852E-2	-1.013632E+1	2.222863E-2	1.691808E-2	6.951371E-2	3.164702E-2
10/19/2017  17:42:53.578041	-3.807029E-1	1.828100E-2	1.900811E-2	-1.015669E+1	2.477858E-2	1.691808E-2	6.442791E-2	2.401527E-2
10/19/2017  17:42:53.579041	1.709106E-1	8.105642E-3	6.282096E-3	-1.013887E+1	1.967868E-2	2.709402E-2	7.459952E-2	2.910311E-2
10/19/2017  17:42:53.580041	5.852563E-1	1.064948E-2	1.646291E-2	-1.013123E+1	1.967868E-2	1.437409E-2	8.477112E-2	3.164702E-2
10/19/2017  17:42:53.581041	1.937886E-1	1.319332E-2	6.282096E-3	-1.013887E+1	2.732853E-2	1.946206E-2	6.697081E-2	2.910311E-2
10/19/2017  17:42:53.582041	-4.239168E-1	1.828100E-2	1.391770E-2	-1.014651E+1	2.477858E-2	2.963800E-2	6.951371E-2	2.910311E-2
10/19/2017  17:42:53.583041	-5.891467E-1	1.319332E-2	3.427933E-2	-1.013887E+1	4.378993E-3	2.709402E-2	8.222822E-2	2.655919E-2
10/19/2017  17:42:53.584041	-8.255525E-1	1.828100E-2	1.900811E-2	-1.014651E+1	1.967868E-2	1.946206E-2	7.459952E-2	3.673486E-2
10/19/2017  17:42:53.585041	-1.442971E-1	1.064948E-2	1.900811E-2	-1.013887E+1	2.222863E-2	2.200605E-2	6.697081E-2	3.673486E-2
10/19/2017  17:42:53.586041	3.869804E-1	5.561801E-3	1.900811E-2	-1.014396E+1	1.712873E-2	2.455003E-2	7.205661E-2	2.401527E-2
10/19/2017  17:42:53.587041	7.479441E-1	1.319332E-2	2.155331E-2	-1.014142E+1	1.457878E-2	1.691808E-2	7.968532E-2	2.147136E-2
10/19/2017  17:42:53.588041	1.195336E+0	5.561801E-3	1.900811E-2	-1.013378E+1	1.712873E-2	1.437409E-2	7.714242E-2	3.927877E-2
10/19/2017  17:42:53.589041	1.025022E+0	1.064948E-2	1.646291E-2	-1.013887E+1	2.987847E-2	1.946206E-2	6.951371E-2	3.164702E-2
10/19/2017  17:42:53.590041	-1.341291E-1	1.573716E-2	1.646291E-2	-1.013632E+1	1.202884E-2	2.455003E-2	7.459952E-2	1.892744E-2
10/19/2017  17:42:53.591041	-5.967727E-1	1.319332E-2	2.155331E-2	-1.014396E+1	1.457878E-2	1.946206E-2	8.222822E-2	3.164702E-2
10/19/2017  17:42:53.592041	3.895224E-1	3.017961E-3	2.409852E-2	-1.012614E+1	2.222863E-2	1.437409E-2	6.951371E-2	4.182269E-2
10/19/2017  17:42:53.593041	1.154664E+0	1.064948E-2	8.827299E-3	-1.012869E+1	2.477858E-2	1.946206E-2	7.205661E-2	2.401527E-2
10/19/2017  17:42:53.594041	2.141246E-1	2.336868E-2	1.646291E-2	-1.013887E+1	2.222863E-2	2.455003E-2	7.714242E-2	3.927877E-2
10/19/2017  17:42:53.595041	1.709106E-1	1.064948E-2	2.918892E-2	-1.012869E+1	1.712873E-2	9.286120E-3	7.968532E-2	3.673486E-2
10/19/2017  17:42:53.596041	1.099027E-1	4.741205E-4	1.391770E-2	-1.013378E+1	1.712873E-2	1.183011E-2	7.459952E-2	2.910311E-2
10/19/2017  17:42:53.597041	8.956670E-2	1.573716E-2	1.137250E-2	-1.013887E+1	2.987847E-2	1.946206E-2	7.459952E-2	2.910311E-2
10/19/2017  17:42:53.598041	-7.029213E-3	2.591253E-2	1.646291E-2	-1.014905E+1	2.477858E-2	2.709402E-2	7.459952E-2	2.401527E-2
10/19/2017  17:42:53.599041	-1.925950E-1	1.064948E-2	2.155331E-2	-1.013887E+1	1.457878E-2	1.946206E-2	7.205661E-2	3.164702E-2
10/19/2017  17:42:53.600041	-1.188771E-1	5.561801E-3	6.282096E-3	-1.013632E+1	1.967868E-2	2.200605E-2	7.205661E-2	3.164702E-2
10/19/2017  17:42:53.601041	1.632846E-1	1.828100E-2	1.391770E-2	-1.014142E+1	2.732853E-2	2.455003E-2	5.425630E-2	2.401527E-2
10/19/2017  17:42:53.602041	-1.341291E-1	1.828100E-2	3.427933E-2	-1.014905E+1	1.967868E-2	2.963800E-2	7.968532E-2	3.164702E-2
10/19/2017  17:42:53.603041	-2.510610E-1	5.561801E-3	2.409852E-2	-1.013378E+1	1.712873E-2	1.437409E-2	8.222822E-2	3.673486E-2
10/19/2017  17:42:53.604041	-1.188771E-1	8.105642E-3	1.191689E-3	-1.013123E+1	1.712873E-2	2.200605E-2	6.697081E-2	2.401527E-2
10/19/2017  17:42:53.605041	4.889474E-2	2.082484E-2	1.137250E-2	-1.014142E+1	2.222863E-2	2.709402E-2	6.697081E-2	2.655919E-2
10/19/2017  17:42:53.606041	1.048187E-1	2.082484E-2	2.409852E-2	-1.014142E+1	1.712873E-2	3.218199E-2	7.968532E-2	3.673486E-2
								
10/19/2017  17:42:53.607041	1.607426E-1	-2.069720E-3	2.664372E-2	-1.012869E+1	1.712873E-2	1.437409E-2	8.222822E-2	3.673486E-2
10/19/2017  17:42:53.608041	1.709106E-1	8.105642E-3	8.827299E-3	-1.012869E+1	2.732853E-2	1.437409E-2	6.697081E-2	3.927877E-2
10/19/2017  17:42:53.609041	2.064986E-1	1.573716E-2	1.391770E-2	-1.015669E+1	1.457878E-2	2.709402E-2	6.188501E-2	2.910311E-2
10/19/2017  17:42:53.610041	5.471263E-1	2.082484E-2	2.918892E-2	-1.014651E+1	1.202884E-2	2.455003E-2	8.222822E-2	3.673486E-2
10/19/2017  17:42:53.611041	1.734526E-1	1.064948E-2	2.664372E-2	-1.012614E+1	1.202884E-2	1.437409E-2	7.968532E-2	3.927877E-2
10/19/2017  17:42:53.612041	-1.061671E-1	1.064948E-2	1.646291E-2	-1.013378E+1	2.477858E-2	1.691808E-2	6.442791E-2	3.164702E-2
10/19/2017  17:42:53.613041	-2.408930E-1	1.319332E-2	1.646291E-2	-1.014142E+1	2.222863E-2	2.455003E-2	6.951371E-2	1.892744E-2
10/19/2017  17:42:53.614041	-1.188771E-1	5.561801E-3	2.155331E-2	-1.014651E+1	1.457878E-2	1.691808E-2	8.477112E-2	3.164702E-2
10/19/2017  17:42:53.615041	1.584877E-2	1.064948E-2	1.900811E-2	-1.012869E+1	2.477858E-2	1.946206E-2	7.459952E-2	2.910311E-2
10/19/2017  17:42:53.616041	3.872675E-2	1.319332E-2	8.827299E-3	-1.011850E+1	2.987847E-2	2.455003E-2	7.205661E-2	2.655919E-2
10/19/2017  17:42:53.617041	-6.041116E-2	8.105642E-3	1.391770E-2	-1.013887E+1	9.478889E-3	2.200605E-2	7.968532E-2	1.638352E-2
10/19/2017  17:42:53.618041	1.353227E-1	8.105642E-3	2.155331E-2	-1.013887E+1	2.222863E-2	2.455003E-2	7.205661E-2	3.419094E-2
10/19/2017  17:42:53.619041	1.353227E-1	1.064948E-2	1.900811E-2	-1.013632E+1	3.242842E-2	2.455003E-2	6.951371E-2	3.164702E-2
10/19/2017  17:42:53.620041	8.702470E-2	2.336868E-2	1.646291E-2	-1.013887E+1	2.222863E-2	2.709402E-2	8.222822E-2	2.147136E-2
10/19/2017  17:42:53.621041	3.872675E-2	2.082484E-2	3.173413E-2	-1.014396E+1	1.712873E-2	1.946206E-2	7.968532E-2	3.164702E-2
10/19/2017  17:42:53.622041	1.937886E-1	3.017961E-3	2.155331E-2	-1.013123E+1	1.457878E-2	1.691808E-2	6.951371E-2	3.419094E-2
10/19/2017  17:42:53.623041	-3.552829E-1	1.573716E-2	1.646291E-2	-1.013632E+1	2.222863E-2	2.709402E-2	6.697081E-2	2.655919E-2
10/19/2017  17:42:53.624041	-6.196507E-1	3.100021E-2	1.646291E-2	-1.014142E+1	2.222863E-2	2.455003E-2	7.714242E-2	2.401527E-2
10/19/2017  17:42:53.625041	2.370026E-1	1.064948E-2	2.155331E-2	-1.013887E+1	1.457878E-2	4.198150E-3	7.968532E-2	3.419094E-2
10/19/2017  17:42:53.626041	5.827143E-1	3.017961E-3	1.137250E-2	-1.012869E+1	2.732853E-2	1.437409E-2	6.697081E-2	3.164702E-2
10/19/2017  17:42:53.627041	6.005082E-1	1.064948E-2	8.827299E-3	-1.014142E+1	2.987847E-2	3.218199E-2	6.951371E-2	2.147136E-2
10/19/2017  17:42:53.628041	2.547966E-1	8.105642E-3	2.664372E-2	-1.014905E+1	2.222863E-2	2.709402E-2	8.222822E-2	2.401527E-2
10/19/2017  17:42:53.629041	-2.993589E-1	5.561801E-3	3.173413E-2	-1.013378E+1	1.457878E-2	1.437409E-2	8.222822E-2	3.927877E-2
10/19/2017  17:42:53.630041	4.381074E-2	5.561801E-3	1.137250E-2	-1.012105E+1	1.967868E-2	1.437409E-2	6.442791E-2	2.401527E-2
10/19/2017  17:42:53.631041	3.005525E-1	1.573716E-2	6.282096E-3	-1.014142E+1	1.967868E-2	2.709402E-2	7.459952E-2	2.401527E-2
10/19/2017  17:42:53.632041	-1.061671E-1	1.573716E-2	2.664372E-2	-1.014142E+1	2.987847E-2	1.946206E-2	7.714242E-2	3.673486E-2
10/19/2017  17:42:53.633041	-2.790230E-1	5.561801E-3	2.409852E-2	-1.012614E+1	1.967868E-2	1.946206E-2	6.951371E-2	3.419094E-2
10/19/2017  17:42:53.634041	-1.976790E-1	1.064948E-2	6.282096E-3	-1.013632E+1	2.732853E-2	1.946206E-2	7.205661E-2	2.147136E-2
10/19/2017  17:42:53.635041	-3.146109E-1	1.828100E-2	1.900811E-2	-1.015415E+1	2.987847E-2	2.200605E-2	6.951371E-2	2.655919E-2
10/19/2017  17:42:53.636041	-5.001768E-1	1.573716E-2	2.664372E-2	-1.014142E+1	1.712873E-2	2.455003E-2	7.968532E-2	2.655919E-2
10/19/2017  17:42:53.637041	-7.312115E-2	8.105642E-3	2.664372E-2	-1.012869E+1	2.222863E-2	1.946206E-2	7.968532E-2	3.673486E-2
10/19/2017  17:42:53.638041	2.446286E-1	1.064948E-2	1.391770E-2	-1.013378E+1	2.987847E-2	1.691808E-2	6.697081E-2	3.164702E-2
10/19/2017  17:42:53.639041	2.395446E-1	1.828100E-2	1.391770E-2	-1.015160E+1	2.987847E-2	1.946206E-2	6.951371E-2	2.401527E-2
								
10/19/2017  17:42:53.640041	1.632846E-1	1.064948E-2	2.918892E-2	-1.013887E+1	1.457878E-2	2.455003E-2	7.968532E-2	2.910311E-2
10/19/2017  17:42:53.641041	9.210870E-2	1.064948E-2	1.646291E-2	-1.012869E+1	2.477858E-2	2.200605E-2	8.477112E-2	3.164702E-2
10/19/2017  17:42:53.642041	4.381074E-2	1.319332E-2	2.155331E-2	-1.013632E+1	3.497837E-2	2.200605E-2	6.697081E-2	3.164702E-2
10/19/2017  17:42:53.643041	4.889474E-2	1.064948E-2	2.155331E-2	-1.014651E+1	1.967868E-2	2.963800E-2	7.205661E-2	2.910311E-2
10/19/2017  17:42:53.644041	-9.571210E-3	1.064948E-2	1.137250E-2	-1.013632E+1	9.478889E-3	1.183011E-2	7.714242E-2	2.401527E-2
10/19/2017  17:42:53.645041	6.668872E-2	5.561801E-3	1.900811E-2	-1.013887E+1	2.477858E-2	9.286120E-3	7.205661E-2	3.673486E-2
10/19/2017  17:42:53.646041	1.353227E-1	1.064948E-2	1.391770E-2	-1.013632E+1	2.732853E-2	2.963800E-2	6.951371E-2	3.673486E-2
10/19/2017  17:42:53.647041	1.582006E-1	2.082484E-2	1.900811E-2	-1.013632E+1	2.222863E-2	2.709402E-2	7.459952E-2	2.910311E-2
10/19/2017  17:42:53.648041	1.276967E-1	1.319332E-2	1.646291E-2	-1.013123E+1	1.457878E-2	9.286120E-3	7.968532E-2	2.401527E-2
10/19/2017  17:42:53.649041	1.378647E-1	3.017961E-3	1.900811E-2	-1.014142E+1	2.222863E-2	1.946206E-2	7.205661E-2	3.927877E-2
10/19/2017  17:42:53.650041	1.048187E-1	1.064948E-2	1.391770E-2	-1.012614E+1	2.477858E-2	2.455003E-2	6.951371E-2	2.910311E-2
10/19/2017  17:42:53.651041	2.093276E-2	2.082484E-2	1.900811E-2	-1.014142E+1	3.497837E-2	2.963800E-2	7.968532E-2	2.655919E-2
10/19/2017  17:42:53.652041	-1.849691E-1	1.064948E-2	2.409852E-2	-1.014396E+1	1.712873E-2	1.946206E-2	7.459952E-2	2.910311E-2
10/19/2017  17:42:53.653041	-9.345713E-2	4.741205E-4	1.900811E-2	-1.012869E+1	9.478889E-3	1.437409E-2	6.188501E-2	2.655919E-2
10/19/2017  17:42:53.654041	-3.552829E-1	1.573716E-2	1.137250E-2	-1.014396E+1	2.987847E-2	2.455003E-2	6.951371E-2	2.655919E-2
10/19/2017  17:42:53.655041	-1.341291E-1	2.082484E-2	2.155331E-2	-1.014142E+1	2.477858E-2	1.946206E-2	7.459952E-2	3.927877E-2
10/19/2017  17:42:53.656041	2.903845E-1	8.105642E-3	3.173413E-2	-1.013887E+1	1.457878E-2	2.709402E-2	7.459952E-2	3.419094E-2
10/19/2017  17:42:53.657041	1.088572E+0	5.561801E-3	1.646291E-2	-1.013123E+1	1.967868E-2	1.183011E-2	7.459952E-2	3.927877E-2
10/19/2017  17:42:53.658041	3.386825E-1	1.573716E-2	1.646291E-2	-1.012105E+1	2.732853E-2	2.963800E-2	6.697081E-2	2.147136E-2
10/19/2017  17:42:53.659041	2.929265E-1	1.319332E-2	2.664372E-2	-1.014651E+1	2.222863E-2	3.218199E-2	7.968532E-2	3.419094E-2
10/19/2017  17:42:53.660041	3.615605E-1	5.561801E-3	2.409852E-2	-1.012869E+1	1.967868E-2	1.437409E-2	7.459952E-2	3.927877E-2
10/19/2017  17:42:53.661041	3.335985E-1	1.064948E-2	6.282096E-3	-1.013887E+1	2.732853E-2	1.691808E-2	6.951371E-2	2.910311E-2
10/19/2017  17:42:53.662041	-1.214191E-1	1.828100E-2	1.646291E-2	-1.014651E+1	2.222863E-2	2.709402E-2	6.188501E-2	2.655919E-2
10/19/2017  17:42:53.663041	-1.544651E-1	1.064948E-2	2.409852E-2	-1.013632E+1	1.712873E-2	2.200605E-2	7.968532E-2	3.419094E-2
10/19/2017  17:42:53.664041	-1.824271E-1	8.105642E-3	1.900811E-2	-1.012359E+1	1.967868E-2	1.437409E-2	7.714242E-2	3.673486E-2
10/19/2017  17:42:53.665041	-1.341291E-1	1.319332E-2	6.282096E-3	-1.013887E+1	3.497837E-2	9.286120E-3	6.951371E-2	2.910311E-2
10/19/2017  17:42:53.666041	-1.620911E-1	1.064948E-2	2.155331E-2	-1.014651E+1	1.967868E-2	2.963800E-2	7.459952E-2	2.910311E-2
10/19/2017  17:42:53.667041	5.967806E-4	1.064948E-2	1.900811E-2	-1.013632E+1	1.712873E-2	2.200605E-2	7.968532E-2	2.655919E-2
10/19/2017  17:42:53.668041	1.658266E-1	2.336868E-2	1.391770E-2	-1.012869E+1	2.732853E-2	1.691808E-2	7.459952E-2	3.164702E-2
10/19/2017  17:42:53.669041	3.615605E-1	1.319332E-2	1.391770E-2	-1.013887E+1	2.732853E-2	1.946206E-2	6.697081E-2	2.147136E-2
10/19/2017  17:42:53.670041	1.632846E-1	1.828100E-2	1.646291E-2	-1.013887E+1	2.222863E-2	2.455003E-2	7.714242E-2	2.147136E-2
10/19/2017  17:42:53.671041	9.465070E-2	5.561801E-3	1.646291E-2	-1.012614E+1	1.457878E-2	1.691808E-2	7.968532E-2	3.927877E-2
10/19/2017  17:42:53.672041	-1.465521E-2	8.105642E-3	1.137250E-2	-1.012869E+1	3.752832E-2	1.946206E-2	7.205661E-2	4.182269E-2
								
10/19/2017  17:42:53.673041	-1.036251E-1	2.082484E-2	1.646291E-2	-1.014905E+1	2.477858E-2	2.709402E-2	7.205661E-2	2.910311E-2
10/19/2017  17:42:53.674041	-1.163351E-1	1.573716E-2	2.409852E-2	-1.014142E+1	1.457878E-2	2.963800E-2	7.459952E-2	3.419094E-2
10/19/2017  17:42:53.675041	-6.069407E-1	1.319332E-2	1.391770E-2	-1.015415E+1	1.457878E-2	1.946206E-2	7.968532E-2	3.164702E-2
10/19/2017  17:42:53.676041	-1.188771E-1	3.017961E-3	2.409852E-2	-1.012359E+1	1.967868E-2	1.691808E-2	7.205661E-2	4.436661E-2
10/19/2017  17:42:53.677041	-3.273209E-1	1.064948E-2	2.155331E-2	-1.012105E+1	2.477858E-2	2.963800E-2	6.697081E-2	3.164702E-2
10/19/2017  17:42:53.678041	-3.476569E-1	2.336868E-2	1.646291E-2	-1.014651E+1	2.222863E-2	2.455003E-2	7.459952E-2	1.638352E-2
10/19/2017  17:42:53.679041	1.607426E-1	8.105642E-3	2.155331E-2	-1.014142E+1	1.457878E-2	1.691808E-2	7.205661E-2	2.655919E-2
10/19/2017  17:42:53.680041	1.096198E+0	4.741205E-4	1.646291E-2	-1.012869E+1	1.967868E-2	1.691808E-2	7.205661E-2	3.673486E-2
10/19/2017  17:42:53.681041	5.293323E-1	1.064948E-2	1.137250E-2	-1.013378E+1	2.732853E-2	2.455003E-2	7.714242E-2	2.655919E-2
10/19/2017  17:42:53.682041	5.680776E-3	2.336868E-2	1.646291E-2	-1.014142E+1	2.222863E-2	2.455003E-2	7.205661E-2	2.910311E-2
10/19/2017  17:42:53.683041	5.649203E-1	8.105642E-3	2.409852E-2	-1.013887E+1	1.202884E-2	1.946206E-2	7.459952E-2	4.182269E-2
10/19/2017  17:42:53.684041	3.615605E-1	8.105642E-3	2.155331E-2	-1.013632E+1	1.457878E-2	6.742135E-3	6.697081E-2	3.419094E-2
10/19/2017  17:42:53.685041	6.996461E-1	2.591253E-2	1.137250E-2	-1.013887E+1	3.242842E-2	1.946206E-2	6.951371E-2	2.147136E-2
10/19/2017  17:42:53.686041	-4.261718E-2	1.828100E-2	2.155331E-2	-1.014142E+1	2.477858E-2	4.490191E-2	8.222822E-2	2.910311E-2
10/19/2017  17:42:53.687041	-1.257692E+0	-2.069720E-3	2.664372E-2	-1.013378E+1	1.457878E-2	1.437409E-2	7.968532E-2	3.419094E-2
10/19/2017  17:42:53.688041	-4.823828E-1	8.105642E-3	1.137250E-2	-1.013887E+1	2.987847E-2	1.437409E-2	7.459952E-2	3.164702E-2
10/19/2017  17:42:53.689041	2.217506E-1	1.319332E-2	1.137250E-2	-1.014396E+1	2.987847E-2	2.200605E-2	6.697081E-2	2.910311E-2
10/19/2017  17:42:53.690041	8.623340E-1	1.828100E-2	2.409852E-2	-1.013887E+1	1.457878E-2	2.709402E-2	7.968532E-2	2.655919E-2
10/19/2017  17:42:53.691041	6.310122E-1	-7.157401E-3	2.155331E-2	-1.013123E+1	1.457878E-2	1.437409E-2	8.222822E-2	3.419094E-2
10/19/2017  17:42:53.692041	3.742704E-1	5.561801E-3	1.137250E-2	-1.013378E+1	2.987847E-2	1.946206E-2	6.951371E-2	3.673486E-2
10/19/2017  17:42:53.693041	-8.328914E-2	1.064948E-2	1.137250E-2	-1.014142E+1	1.457878E-2	2.963800E-2	5.934210E-2	3.419094E-2
10/19/2017  17:42:53.694041	-2.078470E-1	1.828100E-2	3.173413E-2	-1.013887E+1	1.457878E-2	2.963800E-2	7.714242E-2	2.147136E-2
10/19/2017  17:42:53.695041	7.177272E-2	1.573716E-2	2.664372E-2	-1.013887E+1	1.457878E-2	1.946206E-2	7.714242E-2	4.691052E-2
10/19/2017  17:42:53.696041	2.855876E-2	1.064948E-2	2.155331E-2	-1.015669E+1	2.222863E-2	1.691808E-2	7.459952E-2	2.910311E-2
10/19/2017  17:42:53.697041	-2.815650E-1	8.105642E-3	1.900811E-2	-1.013887E+1	2.222863E-2	2.200605E-2	7.714242E-2	2.401527E-2
10/19/2017  17:42:53.698041	-1.036251E-1	1.319332E-2	1.900811E-2	-1.012614E+1	2.222863E-2	2.455003E-2	8.222822E-2	2.401527E-2
10/19/2017  17:42:53.699041	8.222774E-3	1.064948E-2	2.155331E-2	-1.013632E+1	1.712873E-2	1.183011E-2	8.222822E-2	3.419094E-2
10/19/2017  17:42:53.700041	1.887046E-1	3.017961E-3	1.137250E-2	-1.013123E+1	2.987847E-2	1.183011E-2	6.188501E-2	3.673486E-2
10/19/2017  17:42:53.701041	1.632846E-1	8.105642E-3	-3.898717E-3	-1.014142E+1	2.477858E-2	2.963800E-2	6.697081E-2	2.401527E-2
10/19/2017  17:42:53.702041	1.531166E-1	1.828100E-2	2.664372E-2	-1.014905E+1	1.712873E-2	2.709402E-2	9.494273E-2	2.655919E-2
10/19/2017  17:42:53.703041	-2.332670E-1	1.573716E-2	2.918892E-2	-1.013632E+1	1.457878E-2	1.946206E-2	7.968532E-2	4.436661E-2
10/19/2017  17:42:53.704041	-2.434350E-1	1.573716E-2	1.137250E-2	-1.013378E+1	2.477858E-2	1.183011E-2	6.442791E-2	2.910311E-2
10/19/2017  17:42:53.705041	-2.815650E-1	2.082484E-2	8.827299E-3	-1.015160E+1	3.497837E-2	1.691808E-2	6.697081E-2	2.147136E-2
								
10/19/2017  17:42:53.706041	-5.024317E-2	1.064948E-2	2.409852E-2	-1.014651E+1	2.222863E-2	2.200605E-2	7.968532E-2	3.164702E-2
10/19/2017  17:42:53.707041	-4.315428E-1	5.561801E-3	1.900811E-2	-1.013378E+1	1.967868E-2	2.709402E-2	7.205661E-2	4.182269E-2
10/19/2017  17:42:53.708041	-9.399424E-1	1.064948E-2	1.391770E-2	-1.012869E+1	2.222863E-2	2.455003E-2	6.951371E-2	2.910311E-2
10/19/2017  17:42:53.709041	1.861626E-1	1.828100E-2	1.391770E-2	-1.015160E+1	1.712873E-2	2.200605E-2	7.205661E-2	2.401527E-2
10/19/2017  17:42:53.710041	2.039566E-1	-2.069720E-3	2.664372E-2	-1.015415E+1	9.478889E-3	2.200605E-2	7.459952E-2	2.910311E-2
10/19/2017  17:42:53.711041	1.202962E+0	5.561801E-3	1.900811E-2	-1.012869E+1	2.222863E-2	1.437409E-2	7.714242E-2	3.927877E-2
10/19/2017  17:42:53.712041	8.242040E-1	1.573716E-2	1.137250E-2	-1.013632E+1	4.262821E-2	1.691808E-2	7.205661E-2	3.673486E-2
10/19/2017  17:42:53.713041	6.106762E-1	2.082484E-2	1.646291E-2	-1.013632E+1	1.967868E-2	3.218199E-2	7.205661E-2	3.164702E-2
10/19/2017  17:42:53.714041	1.785366E-1	5.561801E-3	2.409852E-2	-1.012614E+1	6.928941E-3	1.691808E-2	7.205661E-2	4.182269E-2
10/19/2017  17:42:53.715041	-7.057916E-2	5.561801E-3	1.391770E-2	-1.012869E+1	2.477858E-2	1.946206E-2	7.205661E-2	2.910311E-2
10/19/2017  17:42:53.716041	3.463085E-1	1.319332E-2	1.900811E-2	-1.013632E+1	2.477858E-2	2.455003E-2	7.714242E-2	3.164702E-2
10/19/2017  17:42:53.717041	2.929265E-1	1.319332E-2	3.427933E-2	-1.013887E+1	1.202884E-2	2.200605E-2	7.459952E-2	3.673486E-2
10/19/2017  17:42:53.718041	3.138778E-3	5.561801E-3	1.137250E-2	-1.012869E+1	1.967868E-2	1.691808E-2	7.205661E-2	2.401527E-2
10/19/2017  17:42:53.719041	3.110075E-2	1.573716E-2	1.137250E-2	-1.015669E+1	2.987847E-2	6.742135E-3	6.188501E-2	2.401527E-2
10/19/2017  17:42:53.720041	-1.188771E-1	1.573716E-2	2.664372E-2	-1.014396E+1	1.712873E-2	2.963800E-2	7.205661E-2	2.655919E-2
10/19/2017  17:42:53.721041	-5.024317E-2	1.573716E-2	2.664372E-2	-1.013123E+1	1.457878E-2	2.455003E-2	9.239983E-2	3.927877E-2
10/19/2017  17:42:53.722041	5.652073E-2	5.561801E-3	1.391770E-2	-1.013378E+1	1.967868E-2	1.183011E-2	6.442791E-2	3.419094E-2
10/19/2017  17:42:53.723041	5.967806E-4	1.573716E-2	1.137250E-2	-1.014142E+1	3.242842E-2	2.200605E-2	6.442791E-2	2.401527E-2
10/19/2017  17:42:53.724041	4.381074E-2	2.082484E-2	3.427933E-2	-1.014142E+1	2.477858E-2	3.472597E-2	7.968532E-2	2.655919E-2
10/19/2017  17:42:53.725041	7.530281E-1	1.828100E-2	2.664372E-2	-1.013632E+1	1.457878E-2	2.200605E-2	8.222822E-2	3.673486E-2
10/19/2017  17:42:53.726041	1.709106E-1	5.561801E-3	1.646291E-2	-1.012869E+1	1.967868E-2	1.691808E-2	6.442791E-2	4.182269E-2
10/19/2017  17:42:53.727041	-7.312115E-2	1.064948E-2	1.137250E-2	-1.014651E+1	2.477858E-2	2.963800E-2	6.697081E-2	2.910311E-2
10/19/2017  17:42:53.728041	-1.697171E-1	1.064948E-2	2.664372E-2	-1.013632E+1	1.457878E-2	1.691808E-2	7.968532E-2	3.164702E-2
10/19/2017  17:42:53.729041	-8.916444E-1	2.336868E-2	1.646291E-2	-1.013123E+1	2.987847E-2	1.437409E-2	7.714242E-2	3.927877E-2
10/19/2017  17:42:53.730041	-2.358090E-1	1.319332E-2	1.137250E-2	-1.014651E+1	2.732853E-2	1.946206E-2	6.951371E-2	3.673486E-2
10/19/2017  17:42:53.731041	-5.024317E-2	1.064948E-2	1.646291E-2	-1.014905E+1	1.457878E-2	2.963800E-2	7.205661E-2	3.419094E-2
10/19/2017  17:42:53.732041	3.132625E-1	1.319332E-2	1.900811E-2	-1.012869E+1	1.457878E-2	2.200605E-2	7.968532E-2	3.164702E-2
10/19/2017  17:42:53.733041	2.903845E-1	1.319332E-2	1.900811E-2	-1.012614E+1	3.752832E-2	1.183011E-2	6.951371E-2	2.910311E-2
10/19/2017  17:42:53.734041	9.719269E-2	1.319332E-2	1.391770E-2	-1.012869E+1	2.477858E-2	2.455003E-2	6.951371E-2	2.147136E-2
10/19/2017  17:42:53.735041	-2.990719E-2	2.082484E-2	2.155331E-2	-1.013887E+1	4.378993E-3	2.455003E-2	7.205661E-2	1.892744E-2
10/19/2017  17:42:53.736041	1.073607E-1	8.105642E-3	6.282096E-3	-1.014651E+1	2.477858E-2	1.183011E-2	7.205661E-2	3.419094E-2
10/19/2017  17:42:53.737041	1.378647E-1	5.561801E-3	1.137250E-2	-1.013887E+1	2.732853E-2	2.963800E-2	6.697081E-2	3.673486E-2
10/19/2017  17:42:53.738041	2.293766E-1	2.591253E-2	2.664372E-2	-1.014905E+1	1.457878E-2	2.963800E-2	8.222822E-2	2.910311E-2
								
10/19/2017  17:42:53.739041	1.327807E-1	1.064948E-2	1.391770E-2	-1.012869E+1	1.967868E-2	1.183011E-2	7.459952E-2	3.927877E-2
10/19/2017  17:42:53.740041	3.259725E-1	1.573716E-2	2.155331E-2	-1.015160E+1	2.987847E-2	1.691808E-2	6.442791E-2	3.164702E-2
10/19/2017  17:42:53.741041	7.835321E-1	1.319332E-2	2.664372E-2	-1.013887E+1	1.712873E-2	2.963800E-2	6.951371E-2	2.147136E-2
10/19/2017  17:42:53.742041	1.045358E+0	8.105642E-3	2.664372E-2	-1.012869E+1	1.457878E-2	1.691808E-2	8.985693E-2	3.673486E-2
10/19/2017  17:42:53.743041	8.369140E-1	1.064948E-2	6.282096E-3	-1.013378E+1	2.987847E-2	1.946206E-2	6.951371E-2	2.910311E-2
10/19/2017  17:42:53.744041	2.039566E-1	1.319332E-2	1.646291E-2	-1.014651E+1	2.222863E-2	2.963800E-2	6.442791E-2	2.401527E-2
10/19/2017  17:42:53.745041	1.839076E-2	1.319332E-2	1.137250E-2	-1.013632E+1	4.378993E-3	1.691808E-2	7.968532E-2	3.164702E-2
10/19/2017  17:42:53.746041	-6.552386E-1	4.741205E-4	1.646291E-2	-1.013378E+1	2.477858E-2	1.946206E-2	7.205661E-2	2.910311E-2
10/19/2017  17:42:53.747041	-1.511892E+0	1.064948E-2	1.900811E-2	-1.013632E+1	2.477858E-2	2.963800E-2	7.205661E-2	2.401527E-2
10/19/2017  17:42:53.748041	-1.682206E+0	3.017961E-3	2.664372E-2	-1.014142E+1	1.202884E-2	2.200605E-2	7.968532E-2	2.655919E-2
10/19/2017  17:42:53.749041	1.302387E-1	8.105642E-3	8.827299E-3	-1.013123E+1	2.222863E-2	4.198150E-3	7.714242E-2	3.164702E-2
10/19/2017  17:42:53.750041	8.216620E-1	3.017961E-3	1.646291E-2	-1.014651E+1	2.732853E-2	2.455003E-2	7.459952E-2	2.655919E-2
10/19/2017  17:42:53.751041	1.566467E+0	1.064948E-2	2.918892E-2	-1.012614E+1	1.712873E-2	1.946206E-2	7.968532E-2	3.673486E-2
10/19/2017  17:42:53.752041	6.208442E-1	1.064948E-2	1.900811E-2	-1.012614E+1	3.752832E-2	2.200605E-2	7.714242E-2	2.401527E-2
10/19/2017  17:42:53.753041	-2.942750E-1	2.082484E-2	1.391770E-2	-1.014142E+1	2.222863E-2	2.200605E-2	7.205661E-2	2.401527E-2
10/19/2017  17:42:53.754041	-7.696285E-1	1.064948E-2	2.409852E-2	-1.012869E+1	6.928941E-3	1.946206E-2	7.205661E-2	3.927877E-2
10/19/2017  17:42:53.755041	-4.007518E-2	8.105642E-3	2.155331E-2	-1.012614E+1	2.222863E-2	1.691808E-2	7.714242E-2	3.673486E-2
10/19/2017  17:42:53.756041	2.675065E-1	1.828100E-2	1.391770E-2	-1.014142E+1	2.477858E-2	2.709402E-2	6.951371E-2	1.638352E-2
10/19/2017  17:42:53.757041	1.683686E-1	1.828100E-2	1.900811E-2	-1.013632E+1	1.712873E-2	2.963800E-2	7.968532E-2	2.910311E-2
10/19/2017  17:42:53.758041	-5.786917E-2	4.741205E-4	1.900811E-2	-1.013632E+1	1.457878E-2	1.437409E-2	7.968532E-2	4.182269E-2
10/19/2017  17:42:53.759041	-3.578249E-1	8.105642E-3	1.391770E-2	-1.015160E+1	2.477858E-2	1.946206E-2	7.459952E-2	3.164702E-2
10/19/2017  17:42:53.760041	-3.476569E-1	2.591253E-2	2.155331E-2	-1.014651E+1	2.477858E-2	2.709402E-2	7.205661E-2	2.401527E-2
10/19/2017  17:42:53.761041	-1.646331E-1	1.319332E-2	2.155331E-2	-1.013887E+1	1.202884E-2	2.963800E-2	8.222822E-2	2.910311E-2
10/19/2017  17:42:53.762041	-2.688550E-1	-2.069720E-3	6.282096E-3	-1.013123E+1	2.732853E-2	1.183011E-2	7.205661E-2	3.164702E-2
10/19/2017  17:42:53.763041	-2.129310E-1	2.082484E-2	1.137250E-2	-1.014396E+1	2.732853E-2	2.963800E-2	5.679920E-2	2.147136E-2
10/19/2017  17:42:53.764041	-2.891910E-1	1.064948E-2	3.427933E-2	-1.013887E+1	2.477858E-2	2.200605E-2	7.968532E-2	2.910311E-2
10/19/2017  17:42:53.765041	-2.993589E-1	3.017961E-3	1.900811E-2	-1.013123E+1	1.712873E-2	1.437409E-2	7.205661E-2	2.910311E-2
10/19/2017  17:42:53.766041	2.855876E-2	1.319332E-2	-1.353514E-3	-1.013887E+1	1.967868E-2	1.437409E-2	6.951371E-2	2.401527E-2
10/19/2017  17:42:53.767041	-1.137931E-1	2.082484E-2	1.646291E-2	-1.014651E+1	2.477858E-2	2.709402E-2	7.205661E-2	2.910311E-2
10/19/2017  17:42:53.768041	1.937886E-1	1.064948E-2	2.409852E-2	-1.013378E+1	2.477858E-2	3.726996E-2	7.968532E-2	2.910311E-2
10/19/2017  17:42:53.769041	4.126874E-2	5.561801E-3	1.391770E-2	-1.012359E+1	2.477858E-2	1.437409E-2	7.968532E-2	2.910311E-2
10/19/2017  17:42:53.770041	2.573385E-1	1.319332E-2	1.391770E-2	-1.013378E+1	2.222863E-2	1.946206E-2	7.459952E-2	3.927877E-2
10/19/2017  17:42:53.771041	3.666444E-1	-2.069720E-3	1.391770E-2	-1.015160E+1	1.712873E-2	2.455003E-2	7.205661E-2	2.910311E-2
								
10/19/2017  17:42:53.772041	1.632846E-1	8.105642E-3	2.155331E-2	-1.012359E+1	2.222863E-2	1.691808E-2	7.459952E-2	3.673486E-2
10/19/2017  17:42:53.773041	1.556586E-1	1.064948E-2	1.137250E-2	-1.013887E+1	3.497837E-2	2.200605E-2	7.205661E-2	2.147136E-2
10/19/2017  17:42:53.774041	1.276967E-1	1.828100E-2	2.409852E-2	-1.014651E+1	1.457878E-2	2.709402E-2	7.968532E-2	2.655919E-2
10/19/2017  17:42:53.775041	8.194071E-2	4.741205E-4	2.155331E-2	-1.013378E+1	1.457878E-2	1.946206E-2	6.188501E-2	3.673486E-2
10/19/2017  17:42:53.776041	1.099027E-1	1.064948E-2	8.827299E-3	-1.013378E+1	2.987847E-2	1.946206E-2	7.205661E-2	3.164702E-2
10/19/2017  17:42:53.777041	9.210870E-2	1.828100E-2	1.900811E-2	-1.014396E+1	9.478889E-3	2.963800E-2	7.459952E-2	3.927877E-2
10/19/2017  17:42:53.778041	1.454906E-1	3.017961E-3	2.409852E-2	-1.011596E+1	1.967868E-2	2.455003E-2	6.697081E-2	2.910311E-2
10/19/2017  17:42:53.779041	1.404067E-1	8.105642E-3	1.646291E-2	-1.013887E+1	2.222863E-2	1.691808E-2	7.459952E-2	2.147136E-2
10/19/2017  17:42:53.780041	-2.736519E-2	1.064948E-2	1.646291E-2	-1.014651E+1	2.477858E-2	2.455003E-2	7.714242E-2	2.147136E-2
10/19/2017  17:42:53.781041	-6.806586E-1	1.573716E-2	2.409852E-2	-1.013887E+1	1.967868E-2	1.946206E-2	7.714242E-2	3.164702E-2
10/19/2017  17:42:53.782041	-1.252608E+0	1.319332E-2	1.646291E-2	-1.013123E+1	1.712873E-2	1.691808E-2	7.205661E-2	2.910311E-2
10/19/2017  17:42:53.783041	-1.585610E+0	1.319332E-2	6.282096E-3	-1.014142E+1	1.457878E-2	1.437409E-2	7.459952E-2	3.164702E-2
10/19/2017  17:42:53.784041	-6.425286E-1	1.573716E-2	1.900811E-2	-1.013378E+1	1.712873E-2	2.455003E-2	6.442791E-2	2.910311E-2
10/19/2017  17:42:53.785041	7.759061E-1	1.064948E-2	6.282096E-3	-1.013632E+1	2.477858E-2	1.691808E-2	7.714242E-2	4.182269E-2
10/19/2017  17:42:53.786041	1.365650E+0	2.082484E-2	8.827299E-3	-1.013123E+1	2.987847E-2	1.946206E-2	7.205661E-2	3.164702E-2
10/19/2017  17:42:53.787041	5.852563E-1	1.828100E-2	1.646291E-2	-1.014396E+1	3.242842E-2	3.472597E-2	7.205661E-2	2.910311E-2
10/19/2017  17:42:53.788041	3.717284E-1	5.561801E-3	2.409852E-2	-1.013887E+1	1.457878E-2	2.200605E-2	7.714242E-2	2.910311E-2
10/19/2017  17:42:53.789041	1.068236E+0	1.064948E-2	1.900811E-2	-1.013378E+1	2.222863E-2	3.472597E-2	7.459952E-2	3.419094E-2
10/19/2017  17:42:53.790041	2.781542E+0	3.100021E-2	8.827299E-3	-1.013887E+1	3.497837E-2	2.963800E-2	6.951371E-2	2.147136E-2
10/19/2017  17:42:53.791041	1.258886E+0	2.082484E-2	2.155331E-2	-1.014651E+1	1.457878E-2	2.963800E-2	8.222822E-2	3.419094E-2
10/19/2017  17:42:53.792041	2.344606E-1	-7.157401E-3	1.900811E-2	-1.013887E+1	6.928941E-3	1.691808E-2	7.968532E-2	4.182269E-2
10/19/2017  17:42:53.793041	2.929265E-1	5.561801E-3	6.282096E-3	-1.014142E+1	2.732853E-2	1.183011E-2	6.951371E-2	3.164702E-2
10/19/2017  17:42:53.794041	1.048187E-1	2.082484E-2	1.137250E-2	-1.014651E+1	4.007827E-2	2.709402E-2	7.968532E-2	2.910311E-2
10/19/2017  17:42:53.795041	-2.586870E-1	1.319332E-2	2.664372E-2	-1.013378E+1	1.202884E-2	2.455003E-2	7.714242E-2	2.910311E-2
10/19/2017  17:42:53.796041	-7.797965E-1	4.741205E-4	1.646291E-2	-1.013378E+1	1.967868E-2	1.437409E-2	7.459952E-2	3.419094E-2
10/19/2017  17:42:53.797041	-1.117882E+0	1.573716E-2	1.900811E-2	-1.014651E+1	1.967868E-2	1.946206E-2	7.968532E-2	3.164702E-2
10/19/2017  17:42:53.798041	-8.255525E-1	1.573716E-2	2.155331E-2	-1.013632E+1	2.222863E-2	1.946206E-2	7.459952E-2	3.673486E-2
10/19/2017  17:42:53.799041	3.208885E-1	1.319332E-2	1.391770E-2	-1.011596E+1	2.222863E-2	2.200605E-2	6.442791E-2	3.419094E-2
10/19/2017  17:42:53.800041	4.047744E-1	1.064948E-2	8.827299E-3	-1.012869E+1	2.477858E-2	1.183011E-2	6.951371E-2	1.638352E-2
10/19/2017  17:42:53.801041	-2.129310E-1	1.828100E-2	1.646291E-2	-1.016687E+1	2.222863E-2	1.691808E-2	6.697081E-2	2.655919E-2
10/19/2017  17:42:53.802041	-5.024317E-2	5.561801E-3	2.664372E-2	-1.013887E+1	1.712873E-2	2.455003E-2	8.222822E-2	3.927877E-2
10/19/2017  17:42:53.803041	-1.465521E-2	1.064948E-2	1.900811E-2	-1.013632E+1	1.967868E-2	2.455003E-2	7.968532E-2	3.164702E-2
10/19/2017  17:42:53.804041	2.141246E-1	2.082484E-2	1.391770E-2	-1.013887E+1	1.967868E-2	2.709402E-2	7.205661E-2	2.401527E-2
								
10/19/2017  17:42:53.805041	2.675065E-1	8.105642E-3	2.664372E-2	-1.014142E+1	1.712873E-2	2.200605E-2	7.459952E-2	3.673486E-2
10/19/2017  17:42:53.806041	-1.951370E-1	8.105642E-3	1.900811E-2	-1.012869E+1	1.712873E-2	1.691808E-2	6.951371E-2	3.673486E-2
10/19/2017  17:42:53.807041	-2.968170E-1	2.082484E-2	1.137250E-2	-1.014142E+1	2.987847E-2	2.709402E-2	6.951371E-2	2.401527E-2
10/19/2017  17:42:53.808041	-1.595491E-1	1.064948E-2	2.409852E-2	-1.013887E+1	1.967868E-2	1.946206E-2	7.714242E-2	3.673486E-2
10/19/2017  17:42:53.809041	-1.366711E-1	-9.701241E-3	1.391770E-2	-1.012869E+1	1.457878E-2	1.691808E-2	7.205661E-2	3.164702E-2
10/19/2017  17:42:53.810041	8.194071E-2	1.064948E-2	1.137250E-2	-1.013378E+1	2.732853E-2	9.286120E-3	6.951371E-2	2.401527E-2
10/19/2017  17:42:53.811041	1.048187E-1	1.828100E-2	1.646291E-2	-1.015669E+1	1.967868E-2	2.963800E-2	7.459952E-2	2.655919E-2
10/19/2017  17:42:53.812041	-1.925950E-1	1.573716E-2	2.664372E-2	-1.013378E+1	1.457878E-2	9.286120E-3	7.968532E-2	4.436661E-2
10/19/2017  17:42:53.813041	-1.976790E-1	5.561801E-3	1.137250E-2	-1.011596E+1	2.477858E-2	1.437409E-2	6.442791E-2	2.147136E-2
10/19/2017  17:42:53.814041	-3.171529E-1	1.573716E-2	1.137250E-2	-1.014905E+1	2.477858E-2	2.455003E-2	7.459952E-2	2.655919E-2
10/19/2017  17:42:53.815041	-5.357647E-1	1.064948E-2	2.155331E-2	-1.014142E+1	2.222863E-2	2.200605E-2	7.205661E-2	3.673486E-2
10/19/2017  17:42:53.816041	1.205504E+0	8.105642E-3	1.900811E-2	-1.012614E+1	2.732853E-2	1.183011E-2	6.697081E-2	3.673486E-2
10/19/2017  17:42:53.817041	1.040274E+0	2.082484E-2	1.137250E-2	-1.013632E+1	1.967868E-2	2.709402E-2	8.222822E-2	1.892744E-2
10/19/2017  17:42:53.818041	4.962863E-1	1.573716E-2	1.900811E-2	-1.015160E+1	1.712873E-2	1.691808E-2	7.714242E-2	3.164702E-2
10/19/2017  17:42:53.819041	2.268346E-1	5.561801E-3	1.391770E-2	-1.013123E+1	1.712873E-2	1.691808E-2	7.205661E-2	2.655919E-2
10/19/2017  17:42:53.820041	-4.900088E-1	1.828100E-2	8.827299E-3	-1.014905E+1	2.732853E-2	1.946206E-2	7.205661E-2	2.401527E-2
10/19/2017  17:42:53.821041	-9.145224E-1	2.591253E-2	2.664372E-2	-1.013887E+1	2.477858E-2	3.218199E-2	7.714242E-2	2.910311E-2
10/19/2017  17:42:53.822041	-3.374889E-1	8.105642E-3	2.155331E-2	-1.014142E+1	2.222863E-2	2.200605E-2	8.222822E-2	3.164702E-2
10/19/2017  17:42:53.823041	1.937886E-1	8.105642E-3	1.137250E-2	-1.013378E+1	1.712873E-2	2.709402E-2	7.459952E-2	2.910311E-2
10/19/2017  17:42:53.824041	4.581564E-1	1.319332E-2	2.155331E-2	-1.013887E+1	3.242842E-2	1.946206E-2	7.205661E-2	3.164702E-2
10/19/2017  17:42:53.825041	6.767682E-1	2.336868E-2	3.682453E-2	-1.014396E+1	1.967868E-2	1.946206E-2	7.459952E-2	2.910311E-2
10/19/2017  17:42:53.826041	4.912023E-1	1.319332E-2	1.391770E-2	-1.013123E+1	1.457878E-2	2.455003E-2	7.205661E-2	3.673486E-2
10/19/2017  17:42:53.827041	6.414672E-2	1.064948E-2	-3.898717E-3	-1.013123E+1	2.222863E-2	1.183011E-2	6.951371E-2	2.401527E-2
10/19/2017  17:42:53.828041	1.180084E+0	1.319332E-2	1.900811E-2	-1.014905E+1	1.967868E-2	2.709402E-2	7.459952E-2	2.655919E-2
10/19/2017  17:42:53.829041	8.979220E-1	1.064948E-2	2.918892E-2	-1.013632E+1	1.712873E-2	2.709402E-2	7.968532E-2	4.182269E-2
10/19/2017  17:42:53.830041	-1.849691E-1	2.336868E-2	1.646291E-2	-1.012614E+1	2.477858E-2	1.183011E-2	7.459952E-2	3.673486E-2
10/19/2017  17:42:53.831041	-4.900088E-1	2.082484E-2	8.827299E-3	-1.013887E+1	2.987847E-2	2.455003E-2	6.442791E-2	1.892744E-2
10/19/2017  17:42:53.832041	1.076477E-2	1.319332E-2	2.155331E-2	-1.014905E+1	2.222863E-2	2.963800E-2	7.968532E-2	2.401527E-2
10/19/2017  17:42:53.833041	-2.307250E-1	1.064948E-2	2.409852E-2	-1.013632E+1	1.457878E-2	2.200605E-2	7.968532E-2	3.419094E-2
10/19/2017  17:42:53.834041	-3.222369E-1	1.064948E-2	1.900811E-2	-1.013123E+1	3.497837E-2	1.691808E-2	7.968532E-2	2.655919E-2
10/19/2017  17:42:53.835041	-2.968170E-1	1.319332E-2	1.391770E-2	-1.013887E+1	2.477858E-2	2.455003E-2	7.205661E-2	2.401527E-2
10/19/2017  17:42:53.836041	-7.312115E-2	1.064948E-2	2.918892E-2	-1.013632E+1	9.478889E-3	1.946206E-2	6.951371E-2	2.401527E-2
10/19/2017  17:42:53.837041	2.319186E-1	8.105642E-3	1.137250E-2	-1.014142E+1	2.477858E-2	1.183011E-2	7.459952E-2	3.164702E-2
								
10/19/2017  17:42:53.838041	-1.465521E-2	2.082484E-2	1.391770E-2	-1.014651E+1	2.987847E-2	2.455003E-2	6.951371E-2	3.673486E-2
10/19/2017  17:42:53.839041	4.047744E-1	1.828100E-2	2.155331E-2	-1.012869E+1	1.457878E-2	2.963800E-2	7.205661E-2	3.164702E-2
10/19/2017  17:42:53.840041	5.140803E-1	5.561801E-3	1.900811E-2	-1.013632E+1	1.967868E-2	1.183011E-2	7.205661E-2	3.164702E-2
10/19/2017  17:42:53.841041	-7.820515E-2	1.319332E-2	1.137250E-2	-1.014396E+1	2.732853E-2	1.183011E-2	7.205661E-2	3.164702E-2
10/19/2017  17:42:53.842041	7.199821E-1	2.082484E-2	2.409852E-2	-1.013887E+1	1.712873E-2	2.709402E-2	7.205661E-2	3.419094E-2
10/19/2017  17:42:53.843041	1.149580E+0	1.828100E-2	1.900811E-2	-1.013632E+1	1.967868E-2	2.200605E-2	6.697081E-2	3.419094E-2
10/19/2017  17:42:53.844041	-5.024317E-2	3.017961E-3	2.409852E-2	-1.013632E+1	2.477858E-2	1.691808E-2	6.951371E-2	2.910311E-2
10/19/2017  17:42:53.845041	-4.747568E-1	1.828100E-2	1.646291E-2	-1.014651E+1	2.477858E-2	2.455003E-2	6.188501E-2	2.401527E-2
10/19/2017  17:42:53.846041	-7.035366E-1	1.573716E-2	2.409852E-2	-1.013378E+1	1.457878E-2	2.455003E-2	7.968532E-2	3.673486E-2
10/19/2017  17:42:53.847041	-9.272324E-1	5.561801E-3	1.900811E-2	-1.012869E+1	1.967868E-2	1.437409E-2	7.205661E-2	3.419094E-2
10/19/2017  17:42:53.848041	-3.222369E-1	1.064948E-2	1.191689E-3	-1.013378E+1	2.987847E-2	9.286120E-3	6.951371E-2	3.164702E-2
10/19/2017  17:42:53.849041	-8.837314E-2	1.573716E-2	1.900811E-2	-1.014396E+1	2.222863E-2	2.709402E-2	7.205661E-2	2.655919E-2
10/19/2017  17:42:53.850041	2.166666E-1	8.105642E-3	2.155331E-2	-1.013887E+1	1.457878E-2	2.963800E-2	8.222822E-2	2.655919E-2
10/19/2017  17:42:53.851041	2.471706E-1	2.082484E-2	1.900811E-2	-1.013887E+1	2.987847E-2	1.437409E-2	7.205661E-2	2.655919E-2
10/19/2017  17:42:53.852041	8.448270E-2	1.828100E-2	1.391770E-2	-1.014651E+1	1.967868E-2	2.455003E-2	7.205661E-2	3.164702E-2
10/19/2017  17:42:53.853041	-3.756189E-1	1.064948E-2	2.664372E-2	-1.014651E+1	6.928941E-3	1.946206E-2	7.205661E-2	2.401527E-2
10/19/2017  17:42:53.854041	1.226127E-1	8.105642E-3	1.391770E-2	-1.013887E+1	1.967868E-2	1.183011E-2	7.205661E-2	3.419094E-2
10/19/2017  17:42:53.855041	1.683686E-1	1.319332E-2	1.646291E-2	-1.013632E+1	3.242842E-2	1.946206E-2	6.951371E-2	3.673486E-2
10/19/2017  17:42:53.856041	2.802165E-1	2.082484E-2	2.155331E-2	-1.014396E+1	1.967868E-2	2.963800E-2	7.205661E-2	3.164702E-2
10/19/2017  17:42:53.857041	7.685671E-2	1.319332E-2	2.155331E-2	-1.013887E+1	1.457878E-2	1.691808E-2	6.697081E-2	2.147136E-2
10/19/2017  17:42:53.858041	1.734526E-1	1.573716E-2	1.391770E-2	-1.013887E+1	2.222863E-2	1.946206E-2	7.205661E-2	2.910311E-2
10/19/2017  17:42:53.859041	-1.211321E-2	1.064948E-2	1.646291E-2	-1.014396E+1	2.222863E-2	2.455003E-2	7.205661E-2	3.927877E-2
10/19/2017  17:42:53.860041	-5.786917E-2	1.573716E-2	3.173413E-2	-1.011596E+1	1.712873E-2	2.455003E-2	7.968532E-2	3.164702E-2
10/19/2017  17:42:53.861041	6.589742E-1	5.561801E-3	1.391770E-2	-1.012869E+1	2.222863E-2	1.183011E-2	7.205661E-2	3.164702E-2
10/19/2017  17:42:53.862041	1.734526E-1	1.064948E-2	1.391770E-2	-1.016178E+1	2.477858E-2	9.286120E-3	6.188501E-2	2.147136E-2
10/19/2017  17:42:53.863041	-2.612290E-1	1.573716E-2	1.137250E-2	-1.014142E+1	1.457878E-2	2.709402E-2	7.459952E-2	3.164702E-2
10/19/2017  17:42:53.864041	-2.764810E-1	8.105642E-3	1.900811E-2	-1.013632E+1	1.967868E-2	1.691808E-2	7.968532E-2	3.673486E-2
10/19/2017  17:42:53.865041	-6.450706E-1	1.573716E-2	6.282096E-3	-1.014396E+1	2.987847E-2	2.963800E-2	6.188501E-2	2.147136E-2
10/19/2017  17:42:53.866041	2.446286E-1	1.064948E-2	2.664372E-2	-1.014396E+1	1.967868E-2	2.709402E-2	7.459952E-2	3.164702E-2
10/19/2017  17:42:53.867041	6.411802E-1	8.105642E-3	2.409852E-2	-1.013123E+1	1.457878E-2	1.946206E-2	7.459952E-2	3.164702E-2
10/19/2017  17:42:53.868041	8.394560E-1	2.082484E-2	1.137250E-2	-1.013123E+1	2.987847E-2	1.946206E-2	7.205661E-2	3.164702E-2
10/19/2017  17:42:53.869041	1.709106E-1	1.573716E-2	1.900811E-2	-1.013887E+1	2.222863E-2	1.437409E-2	7.205661E-2	2.910311E-2
10/19/2017  17:42:53.870041	-1.417551E-1	2.082484E-2	2.155331E-2	-1.013632E+1	1.967868E-2	1.437409E-2	7.459952E-2	3.673486E-2
								
10/19/2017  17:42:53.871041	-3.273209E-1	1.319332E-2	8.827299E-3	-1.013887E+1	2.732853E-2	1.183011E-2	7.205661E-2	2.147136E-2
10/19/2017  17:42:53.872041	5.674623E-1	2.336868E-2	1.900811E-2	-1.012869E+1	2.732853E-2	3.218199E-2	7.714242E-2	2.910311E-2
10/19/2017  17:42:53.873041	2.573385E-1	5.561801E-3	2.918892E-2	-1.013123E+1	1.457878E-2	1.183011E-2	7.968532E-2	4.436661E-2
10/19/2017  17:42:53.874041	-4.645888E-1	4.741205E-4	1.137250E-2	-1.013123E+1	1.457878E-2	1.946206E-2	6.697081E-2	2.655919E-2
10/19/2017  17:42:53.875041	-1.087378E+0	2.082484E-2	1.391770E-2	-1.015160E+1	1.457878E-2	2.455003E-2	7.714242E-2	3.164702E-2
10/19/2017  17:42:53.876041	-7.264146E-1	1.064948E-2	1.900811E-2	-1.013123E+1	3.497837E-2	1.946206E-2	7.459952E-2	4.182269E-2
10/19/2017  17:42:53.877041	-3.120689E-1	1.064948E-2	1.391770E-2	-1.012614E+1	2.987847E-2	2.709402E-2	6.951371E-2	2.655919E-2
10/19/2017  17:42:53.878041	-3.857869E-1	2.082484E-2	1.900811E-2	-1.013887E+1	1.457878E-2	2.455003E-2	7.205661E-2	3.164702E-2
10/19/2017  17:42:53.879041	-3.425729E-1	1.064948E-2	2.664372E-2	-1.013123E+1	1.967868E-2	9.286120E-3	7.205661E-2	3.673486E-2
10/19/2017  17:42:53.880041	-1.595491E-1	1.064948E-2	1.137250E-2	-1.013887E+1	2.477858E-2	1.946206E-2	6.697081E-2	2.147136E-2
10/19/2017  17:42:53.881041	6.945622E-1	1.064948E-2	1.900811E-2	-1.013378E+1	2.222863E-2	2.455003E-2	7.968532E-2	3.164702E-2
10/19/2017  17:42:53.882041	1.363108E+0	1.828100E-2	1.391770E-2	-1.013887E+1	2.222863E-2	1.183011E-2	7.714242E-2	2.910311E-2
10/19/2017  17:42:53.883041	1.080946E+0	2.082484E-2	1.137250E-2	-1.014651E+1	2.477858E-2	1.946206E-2	5.679920E-2	2.401527E-2
10/19/2017  17:42:53.884041	3.971484E-1	8.105642E-3	1.137250E-2	-1.014142E+1	1.457878E-2	2.455003E-2	7.459952E-2	3.419094E-2
10/19/2017  17:42:53.885041	-2.736519E-2	1.319332E-2	1.391770E-2	-1.013887E+1	2.222863E-2	1.946206E-2	7.968532E-2	3.673486E-2
10/19/2017  17:42:53.886041	1.363108E+0	2.082484E-2	1.900811E-2	-1.013378E+1	3.242842E-2	2.455003E-2	6.951371E-2	3.164702E-2
10/19/2017  17:42:53.887041	1.665605E+0	1.828100E-2	1.391770E-2	-1.014651E+1	1.967868E-2	2.455003E-2	7.205661E-2	2.401527E-2
10/19/2017  17:42:53.888041	-8.967284E-1	1.573716E-2	2.409852E-2	-1.013123E+1	1.457878E-2	1.691808E-2	7.968532E-2	3.673486E-2
10/19/2017  17:42:53.889041	-1.443258E+0	1.064948E-2	1.137250E-2	-1.013632E+1	2.987847E-2	1.691808E-2	6.951371E-2	2.910311E-2
10/19/2017  17:42:53.890041	-4.569628E-1	1.828100E-2	1.391770E-2	-1.015160E+1	2.987847E-2	2.455003E-2	7.205661E-2	2.910311E-2
10/19/2017  17:42:53.891041	9.207999E-1	4.741205E-4	2.664372E-2	-1.013378E+1	2.477858E-2	2.200605E-2	7.968532E-2	2.655919E-2
10/19/2017  17:42:53.892041	-9.571210E-3	3.017961E-3	1.646291E-2	-1.013378E+1	1.967868E-2	2.200605E-2	7.205661E-2	2.655919E-2
10/19/2017  17:42:53.893041	-2.002210E-1	-2.069720E-3	1.900811E-2	-1.014651E+1	2.987847E-2	2.200605E-2	7.205661E-2	2.655919E-2
10/19/2017  17:42:53.894041	9.538459E-1	1.064948E-2	2.409852E-2	-1.013123E+1	1.457878E-2	2.200605E-2	8.222822E-2	4.182269E-2
10/19/2017  17:42:53.895041	1.736781E+0	8.105642E-3	1.391770E-2	-1.012359E+1	3.497837E-2	1.183011E-2	6.188501E-2	4.182269E-2
10/19/2017  17:42:53.896041	7.939871E-2	2.082484E-2	1.137250E-2	-1.014651E+1	2.732853E-2	2.455003E-2	6.951371E-2	2.147136E-2
10/19/2017  17:42:53.897041	-9.450264E-1	1.319332E-2	2.664372E-2	-1.013887E+1	9.478889E-3	2.200605E-2	7.714242E-2	2.910311E-2
10/19/2017  17:42:53.898041	-9.043544E-1	8.105642E-3	1.391770E-2	-1.012614E+1	1.967868E-2	1.437409E-2	7.714242E-2	3.927877E-2
10/19/2017  17:42:53.899041	-5.078028E-1	1.828100E-2	8.827299E-3	-1.014651E+1	2.732853E-2	2.709402E-2	6.951371E-2	8.751773E-3
10/19/2017  17:42:53.900041	-4.035809E-1	1.573716E-2	2.155331E-2	-1.015415E+1	1.457878E-2	1.691808E-2	7.714242E-2	3.164702E-2
10/19/2017  17:42:53.901041	-5.179708E-1	4.741205E-4	1.646291E-2	-1.012869E+1	1.967868E-2	1.437409E-2	7.459952E-2	2.401527E-2
10/19/2017  17:42:53.902041	-2.612290E-1	1.573716E-2	1.137250E-2	-1.014651E+1	2.477858E-2	9.286120E-3	6.951371E-2	3.419094E-2
10/19/2017  17:42:53.903041	-1.112511E-1	1.828100E-2	2.155331E-2	-1.013887E+1	2.477858E-2	1.946206E-2	7.205661E-2	3.164702E-2
								
10/19/2017  17:42:53.904041	-4.261718E-2	5.561801E-3	1.646291E-2	-1.012869E+1	2.222863E-2	2.709402E-2	7.968532E-2	3.927877E-2
10/19/2017  17:42:53.905041	-4.007518E-2	8.105642E-3	8.827299E-3	-1.013887E+1	2.732853E-2	1.437409E-2	6.951371E-2	2.655919E-2
10/19/2017  17:42:53.906041	2.601676E-2	1.573716E-2	1.646291E-2	-1.015160E+1	1.967868E-2	2.963800E-2	9.239983E-2	3.164702E-2
10/19/2017  17:42:53.907041	3.618475E-2	8.105642E-3	3.427933E-2	-1.013378E+1	1.967868E-2	1.946206E-2	7.459952E-2	3.927877E-2
10/19/2017  17:42:53.908041	9.210870E-2	1.064948E-2	1.391770E-2	-1.014651E+1	2.732853E-2	2.709402E-2	6.697081E-2	2.147136E-2
10/19/2017  17:42:53.909041	-9.571210E-3	2.082484E-2	8.827299E-3	-1.014396E+1	1.202884E-2	9.286120E-3	7.714242E-2	3.164702E-2
10/19/2017  17:42:53.910041	-4.487215E-3	-2.069720E-3	1.900811E-2	-1.013887E+1	1.967868E-2	1.183011E-2	6.951371E-2	3.164702E-2
10/19/2017  17:42:53.911041	8.702470E-2	1.319332E-2	1.646291E-2	-1.013378E+1	2.477858E-2	1.437409E-2	7.459952E-2	2.910311E-2
10/19/2017  17:42:53.912041	1.429487E-1	3.100021E-2	2.155331E-2	-1.013123E+1	2.222863E-2	1.946206E-2	8.222822E-2	3.164702E-2
10/19/2017  17:42:53.913041	1.658266E-1	5.561801E-3	1.646291E-2	-1.012869E+1	3.242842E-2	1.183011E-2	7.459952E-2	4.436661E-2
10/19/2017  17:42:53.914041	-2.459770E-1	1.319332E-2	1.137250E-2	-1.015415E+1	2.222863E-2	2.709402E-2	6.442791E-2	2.655919E-2
10/19/2017  17:42:53.915041	-8.583114E-2	1.064948E-2	2.664372E-2	-1.013378E+1	1.457878E-2	2.455003E-2	7.968532E-2	3.164702E-2
10/19/2017  17:42:53.916041	9.719269E-2	1.064948E-2	1.900811E-2	-1.012105E+1	3.242842E-2	1.437409E-2	7.968532E-2	2.401527E-2
10/19/2017  17:42:53.917041	6.157602E-1	8.105642E-3	1.900811E-2	-1.013378E+1	1.967868E-2	2.200605E-2	6.951371E-2	2.401527E-2
10/19/2017  17:42:53.918041	5.217063E-1	2.082484E-2	2.409852E-2	-1.014651E+1	4.378993E-3	2.455003E-2	7.459952E-2	2.147136E-2
10/19/2017  17:42:53.919041	-5.278517E-2	8.105642E-3	1.137250E-2	-1.013632E+1	2.222863E-2	1.183011E-2	7.459952E-2	3.673486E-2
10/19/2017  17:42:53.920041	3.412245E-1	1.064948E-2	1.391770E-2	-1.014651E+1	2.987847E-2	2.455003E-2	7.205661E-2	2.401527E-2
10/19/2017  17:42:53.921041	4.200264E-1	1.319332E-2	1.646291E-2	-1.012105E+1	2.477858E-2	2.709402E-2	7.968532E-2	2.910311E-2
10/19/2017  17:42:53.922041	4.378204E-1	8.105642E-3	1.391770E-2	-1.012869E+1	1.967868E-2	1.183011E-2	7.459952E-2	3.927877E-2
10/19/2017  17:42:53.923041	4.126874E-2	1.064948E-2	1.391770E-2	-1.015415E+1	2.732853E-2	1.437409E-2	6.442791E-2	2.401527E-2
10/19/2017  17:42:53.924041	9.973469E-2	8.105642E-3	2.918892E-2	-1.014396E+1	1.457878E-2	2.963800E-2	7.968532E-2	3.164702E-2
10/19/2017  17:42:53.925041	-1.315871E-1	1.064948E-2	1.137250E-2	-1.013378E+1	2.222863E-2	1.691808E-2	8.731403E-2	3.673486E-2
10/19/2017  17:42:53.926041	5.906273E-2	2.082484E-2	1.391770E-2	-1.013887E+1	3.497837E-2	1.946206E-2	6.697081E-2	2.401527E-2
10/19/2017  17:42:53.927041	2.344606E-1	1.573716E-2	2.155331E-2	-1.014396E+1	1.202884E-2	2.963800E-2	7.205661E-2	2.910311E-2
10/19/2017  17:42:53.928041	1.276967E-1	1.064948E-2	2.155331E-2	-1.013123E+1	1.202884E-2	1.183011E-2	7.459952E-2	3.673486E-2
10/19/2017  17:42:53.929041	5.967806E-4	1.573716E-2	8.827299E-3	-1.013887E+1	2.987847E-2	2.200605E-2	6.951371E-2	2.401527E-2
10/19/2017  17:42:53.930041	-3.753318E-2	1.828100E-2	2.155331E-2	-1.014396E+1	2.477858E-2	3.726996E-2	7.968532E-2	3.164702E-2
10/19/2017  17:42:53.931041	1.330677E-2	-7.157401E-3	1.900811E-2	-1.014651E+1	1.712873E-2	1.437409E-2	7.205661E-2	3.673486E-2
10/19/2017  17:42:53.932041	4.635274E-2	1.064948E-2	1.391770E-2	-1.014142E+1	2.222863E-2	4.198150E-3	7.205661E-2	1.892744E-2
10/19/2017  17:42:53.933041	8.194071E-2	3.354405E-2	2.409852E-2	-1.014142E+1	2.477858E-2	1.946206E-2	7.968532E-2	3.164702E-2
10/19/2017  17:42:53.934041	9.465070E-2	8.105642E-3	1.900811E-2	-1.013123E+1	1.967868E-2	1.691808E-2	7.205661E-2	3.927877E-2
10/19/2017  17:42:53.935041	2.855876E-2	5.561801E-3	1.137250E-2	-1.014905E+1	2.987847E-2	1.946206E-2	7.205661E-2	2.147136E-2
10/19/2017  17:42:53.936041	-1.945217E-3	1.828100E-2	2.155331E-2	-1.014651E+1	1.457878E-2	2.200605E-2	8.222822E-2	3.164702E-2
								
10/19/2017  17:42:53.937041	4.126874E-2	1.064948E-2	1.137250E-2	-1.013123E+1	1.712873E-2	1.183011E-2	7.459952E-2	3.419094E-2
10/19/2017  17:42:53.938041	3.618475E-2	1.828100E-2	1.137250E-2	-1.013632E+1	2.732853E-2	2.455003E-2	7.205661E-2	2.401527E-2
10/19/2017  17:42:53.939041	1.836206E-1	2.082484E-2	1.646291E-2	-1.014142E+1	4.378993E-3	2.709402E-2	7.459952E-2	2.401527E-2
10/19/2017  17:42:53.940041	1.353227E-1	1.064948E-2	1.137250E-2	-1.015415E+1	2.222863E-2	1.946206E-2	7.459952E-2	3.164702E-2
10/19/2017  17:42:53.941041	-2.332670E-1	4.741205E-4	1.900811E-2	-1.013632E+1	2.477858E-2	2.200605E-2	6.697081E-2	3.927877E-2
10/19/2017  17:42:53.942041	-5.611847E-1	1.828100E-2	2.155331E-2	-1.012105E+1	1.967868E-2	2.709402E-2	7.968532E-2	3.164702E-2
10/19/2017  17:42:53.943041	1.912466E-1	2.082484E-2	1.137250E-2	-1.013632E+1	1.712873E-2	2.200605E-2	7.459952E-2	3.164702E-2
10/19/2017  17:42:53.944041	7.431471E-2	1.064948E-2	1.900811E-2	-1.014142E+1	2.222863E-2	1.691808E-2	7.968532E-2	3.164702E-2
10/19/2017  17:42:53.945041	6.233862E-1	1.064948E-2	8.827299E-3	-1.014142E+1	2.732853E-2	2.709402E-2	7.459952E-2	2.147136E-2
10/19/2017  17:42:53.946041	2.217506E-1	1.828100E-2	2.409852E-2	-1.013632E+1	1.712873E-2	2.200605E-2	7.714242E-2	2.910311E-2
10/19/2017  17:42:53.947041	-5.024317E-2	1.828100E-2	2.918892E-2	-1.013887E+1	2.477858E-2	1.437409E-2	7.459952E-2	3.164702E-2
10/19/2017  17:42:53.948041	1.404067E-1	1.064948E-2	1.646291E-2	-1.013632E+1	1.712873E-2	1.946206E-2	6.697081E-2	2.655919E-2
10/19/2017  17:42:53.949041	2.853005E-1	1.064948E-2	1.646291E-2	-1.013887E+1	9.478889E-3	1.691808E-2	8.222822E-2	2.910311E-2
10/19/2017  17:42:53.950041	3.615605E-1	1.064948E-2	1.900811E-2	-1.013887E+1	2.477858E-2	9.286120E-3	7.459952E-2	3.164702E-2
10/19/2017  17:42:53.951041	1.759946E-1	1.064948E-2	1.900811E-2	-1.013887E+1	2.477858E-2	2.963800E-2	7.459952E-2	2.655919E-2
10/19/2017  17:42:53.952041	5.143673E-2	1.064948E-2	1.900811E-2	-1.013632E+1	2.732853E-2	2.200605E-2	7.968532E-2	2.910311E-2
10/19/2017  17:42:53.953041	4.378204E-1	8.105642E-3	1.900811E-2	-1.013123E+1	1.967868E-2	1.437409E-2	6.951371E-2	3.673486E-2
10/19/2017  17:42:53.954041	1.993523E+0	-2.069720E-3	1.646291E-2	-1.014651E+1	1.712873E-2	1.946206E-2	6.442791E-2	2.910311E-2
10/19/2017  17:42:53.955041	1.302387E-1	2.082484E-2	2.664372E-2	-1.013632E+1	1.457878E-2	2.709402E-2	7.968532E-2	2.655919E-2
10/19/2017  17:42:53.956041	-4.264588E-1	5.561801E-3	2.409852E-2	-1.012359E+1	3.242842E-2	1.437409E-2	7.459952E-2	3.673486E-2
10/19/2017  17:42:53.957041	-2.993589E-1	1.573716E-2	1.391770E-2	-1.014142E+1	2.477858E-2	1.946206E-2	6.697081E-2	3.164702E-2
10/19/2017  17:42:53.958041	-2.536030E-1	1.828100E-2	1.900811E-2	-1.013632E+1	6.928941E-3	2.709402E-2	7.459952E-2	3.673486E-2
10/19/2017  17:42:53.959041	3.361405E-1	1.828100E-2	1.900811E-2	-1.013887E+1	2.222863E-2	1.691808E-2	7.714242E-2	3.164702E-2
10/19/2017  17:42:53.960041	1.302387E-1	1.064948E-2	2.155331E-2	-1.013887E+1	1.967868E-2	1.946206E-2	7.459952E-2	4.436661E-2
10/19/2017  17:42:53.961041	1.683686E-1	1.828100E-2	2.155331E-2	-1.013123E+1	2.222863E-2	2.963800E-2	7.459952E-2	2.655919E-2
10/19/2017  17:42:53.962041	6.945622E-1	5.561801E-3	2.409852E-2	-1.013632E+1	1.202884E-2	1.691808E-2	7.968532E-2	2.910311E-2
10/19/2017  17:42:53.963041	7.352341E-1	1.573716E-2	1.646291E-2	-1.013378E+1	2.987847E-2	6.742135E-3	6.697081E-2	2.910311E-2
10/19/2017  17:42:53.964041	-2.230990E-1	1.573716E-2	2.409852E-2	-1.014396E+1	2.222863E-2	2.963800E-2	7.205661E-2	2.655919E-2
10/19/2017  17:42:53.965041	-9.831563E-1	8.105642E-3	2.409852E-2	-1.013887E+1	1.457878E-2	1.946206E-2	6.442791E-2	2.655919E-2
10/19/2017  17:42:53.966041	-4.722148E-1	5.561801E-3	8.827299E-3	-1.013632E+1	2.732853E-2	1.946206E-2	7.205661E-2	2.910311E-2
10/19/2017  17:42:53.967041	-3.501989E-1	8.105642E-3	1.900811E-2	-1.013887E+1	2.222863E-2	1.946206E-2	7.205661E-2	2.401527E-2
10/19/2017  17:42:53.968041	-1.595491E-1	1.573716E-2	3.736893E-3	-1.013887E+1	1.712873E-2	2.455003E-2	7.714242E-2	3.164702E-2
10/19/2017  17:42:53.969041	-4.315428E-1	1.064948E-2	2.409852E-2	-1.012869E+1	2.477858E-2	1.437409E-2	7.459952E-2	3.419094E-2
								
10/19/2017  17:42:53.970041	-6.171087E-1	1.319332E-2	1.137250E-2	-1.013632E+1	3.497837E-2	2.455003E-2	6.697081E-2	3.164702E-2
10/19/2017  17:42:53.971041	-3.959549E-1	1.319332E-2	1.646291E-2	-1.014651E+1	1.967868E-2	2.455003E-2	7.205661E-2	2.910311E-2
10/19/2017  17:42:53.972041	2.522546E-1	1.319332E-2	2.409852E-2	-1.013123E+1	2.477858E-2	1.183011E-2	7.205661E-2	2.147136E-2
10/19/2017  17:42:53.973041	-5.024317E-2	1.064948E-2	1.900811E-2	-1.012869E+1	2.732853E-2	1.946206E-2	7.205661E-2	2.910311E-2
10/19/2017  17:42:53.974041	-1.346662E+0	1.319332E-2	1.646291E-2	-1.014396E+1	2.222863E-2	1.946206E-2	7.205661E-2	2.655919E-2
10/19/2017  17:42:53.975041	-1.110256E+0	-4.613560E-3	2.664372E-2	-1.013632E+1	1.829045E-3	2.200605E-2	7.459952E-2	3.927877E-2
10/19/2017  17:42:53.976041	1.546131E+0	1.064948E-2	1.391770E-2	-1.013887E+1	2.222863E-2	1.183011E-2	6.951371E-2	3.673486E-2
10/19/2017  17:42:53.977041	2.024027E+0	1.828100E-2	1.391770E-2	-1.013632E+1	1.967868E-2	2.963800E-2	6.188501E-2	2.910311E-2
10/19/2017  17:42:53.978041	8.648760E-1	1.064948E-2	2.664372E-2	-1.012869E+1	1.712873E-2	2.200605E-2	7.968532E-2	2.910311E-2
10/19/2017  17:42:53.979041	-4.798408E-1	5.561801E-3	1.137250E-2	-1.013378E+1	2.222863E-2	1.437409E-2	7.205661E-2	3.927877E-2
10/19/2017  17:42:53.980041	-7.543765E-1	1.064948E-2	6.282096E-3	-1.014396E+1	2.477858E-2	2.963800E-2	6.442791E-2	2.147136E-2
10/19/2017  17:42:53.981041	-1.671751E-1	1.064948E-2	2.155331E-2	-1.014651E+1	1.712873E-2	2.709402E-2	7.459952E-2	2.910311E-2
10/19/2017  17:42:53.982041	2.827585E-1	8.105642E-3	2.664372E-2	-1.013123E+1	1.457878E-2	1.946206E-2	8.222822E-2	3.419094E-2
10/19/2017  17:42:53.983041	1.175000E+0	1.319332E-2	6.282096E-3	-1.013378E+1	2.732853E-2	1.437409E-2	6.697081E-2	2.910311E-2
10/19/2017  17:42:53.984041	1.007228E+0	1.573716E-2	1.391770E-2	-1.015924E+1	2.222863E-2	1.946206E-2	6.697081E-2	2.910311E-2
10/19/2017  17:42:53.985041	7.047301E-1	-2.069720E-3	2.664372E-2	-1.013123E+1	1.202884E-2	2.200605E-2	7.205661E-2	2.910311E-2
10/19/2017  17:42:53.986041	-5.103448E-1	1.828100E-2	1.900811E-2	-1.013378E+1	2.477858E-2	1.946206E-2	6.697081E-2	3.164702E-2
10/19/2017  17:42:53.987041	-1.620911E-1	1.828100E-2	3.427933E-2	-1.013632E+1	2.732853E-2	3.218199E-2	7.459952E-2	2.910311E-2
10/19/2017  17:42:53.988041	2.547966E-1	1.828100E-2	1.646291E-2	-1.013378E+1	2.222863E-2	1.691808E-2	8.222822E-2	3.673486E-2
10/19/2017  17:42:53.989041	5.725463E-1	1.064948E-2	1.191689E-3	-1.013632E+1	2.477858E-2	2.963800E-2	6.951371E-2	2.655919E-2
10/19/2017  17:42:53.990041	6.030502E-1	2.591253E-2	2.664372E-2	-1.014396E+1	1.457878E-2	2.963800E-2	8.222822E-2	2.147136E-2
10/19/2017  17:42:53.991041	2.649645E-1	1.064948E-2	2.155331E-2	-1.012359E+1	1.712873E-2	1.437409E-2	7.968532E-2	4.182269E-2
10/19/2017  17:42:53.992041	3.742704E-1	4.741205E-4	1.137250E-2	-1.013123E+1	1.712873E-2	2.200605E-2	6.697081E-2	2.910311E-2
10/19/2017  17:42:53.993041	3.386825E-1	1.064948E-2	1.900811E-2	-1.014396E+1	2.222863E-2	1.183011E-2	7.459952E-2	2.147136E-2
10/19/2017  17:42:53.994041	-4.925508E-1	1.828100E-2	2.409852E-2	-1.013123E+1	6.928941E-3	1.946206E-2	7.714242E-2	4.182269E-2
10/19/2017  17:42:53.995041	-9.246904E-1	5.561801E-3	1.391770E-2	-1.013632E+1	2.477858E-2	1.691808E-2	6.697081E-2	3.164702E-2
10/19/2017  17:42:53.996041	-9.246904E-1	1.828100E-2	1.391770E-2	-1.013123E+1	3.497837E-2	2.709402E-2	7.205661E-2	2.655919E-2
10/19/2017  17:42:53.997041	-6.425286E-1	1.064948E-2	2.155331E-2	-1.013887E+1	1.457878E-2	1.946206E-2	7.714242E-2	3.927877E-2
10/19/2017  17:42:53.998041	-1.748011E-1	5.561801E-3	1.137250E-2	-1.012869E+1	4.262821E-2	1.437409E-2	6.951371E-2	3.927877E-2
10/19/2017  17:42:53.999041	1.582006E-1	1.573716E-2	3.736893E-3	-1.013632E+1	2.987847E-2	2.963800E-2	7.459952E-2	2.401527E-2
10/19/2017  17:42:54.000041	1.531166E-1	1.573716E-2	1.900811E-2	-1.013887E+1	1.457878E-2	1.946206E-2	8.222822E-2	2.147136E-2
10/19/2017  17:42:54.001041	-1.188771E-1	1.064948E-2	1.191689E-3	-1.012869E+1	2.222863E-2	1.691808E-2	6.697081E-2	3.164702E-2
10/19/2017  17:42:54.002041	-6.549516E-2	8.105642E-3	1.900811E-2	-1.013632E+1	1.967868E-2	1.946206E-2	7.459952E-2	1.892744E-2
								
10/19/2017  17:42:54.003041	5.652073E-2	1.319332E-2	1.646291E-2	-1.013123E+1	2.222863E-2	2.455003E-2	7.205661E-2	3.164702E-2
10/19/2017  17:42:54.004041	1.022767E-1	1.573716E-2	2.409852E-2	-1.013378E+1	1.712873E-2	1.437409E-2	7.968532E-2	3.927877E-2
10/19/2017  17:42:54.005041	1.836206E-1	1.064948E-2	1.137250E-2	-1.013632E+1	2.732853E-2	1.946206E-2	6.697081E-2	2.910311E-2
10/19/2017  17:42:54.006041	2.370026E-1	1.573716E-2	1.646291E-2	-1.014142E+1	1.712873E-2	2.709402E-2	7.714242E-2	2.147136E-2
10/19/2017  17:42:54.007041	-2.358090E-1	1.828100E-2	2.155331E-2	-1.013632E+1	1.712873E-2	2.455003E-2	9.239983E-2	3.164702E-2
10/19/2017  17:42:54.008041	-5.967727E-1	1.064948E-2	3.427933E-2	-1.012614E+1	2.477858E-2	1.691808E-2	7.459952E-2	3.927877E-2
10/19/2017  17:42:54.009041	1.658266E-1	1.064948E-2	8.827299E-3	-1.013887E+1	2.732853E-2	2.963800E-2	6.697081E-2	2.147136E-2
10/19/2017  17:42:54.010041	1.749491E+0	1.064948E-2	1.391770E-2	-1.014142E+1	9.478889E-3	9.286120E-3	7.968532E-2	2.910311E-2
10/19/2017  17:42:54.011041	8.064101E-1	4.741205E-4	1.900811E-2	-1.013123E+1	1.967868E-2	1.946206E-2	7.459952E-2	2.655919E-2
10/19/2017  17:42:54.012041	-5.967727E-1	1.573716E-2	1.900811E-2	-1.013378E+1	2.987847E-2	2.200605E-2	6.697081E-2	2.910311E-2
10/19/2017  17:42:54.013041	-6.933686E-1	2.591253E-2	2.664372E-2	-1.014142E+1	1.457878E-2	2.963800E-2	7.459952E-2	2.910311E-2
10/19/2017  17:42:54.014041	2.347476E-2	5.561801E-3	1.391770E-2	-1.013123E+1	2.222863E-2	6.742135E-3	7.459952E-2	3.164702E-2
10/19/2017  17:42:54.015041	-1.875110E-1	1.064948E-2	1.137250E-2	-1.014396E+1	2.987847E-2	1.946206E-2	6.697081E-2	3.164702E-2
10/19/2017  17:42:54.016041	4.635274E-2	1.828100E-2	1.646291E-2	-1.013632E+1	2.222863E-2	2.455003E-2	7.714242E-2	3.164702E-2
10/19/2017  17:42:54.017041	2.601676E-2	1.064948E-2	1.391770E-2	-1.013378E+1	1.967868E-2	1.946206E-2	7.714242E-2	2.910311E-2
10/19/2017  17:42:54.018041	-1.925950E-1	1.064948E-2	1.137250E-2	-1.014396E+1	2.987847E-2	1.946206E-2	6.442791E-2	3.164702E-2
10/19/2017  17:42:54.019041	5.674623E-1	1.573716E-2	2.409852E-2	-1.014142E+1	1.457878E-2	2.709402E-2	6.951371E-2	1.638352E-2
10/19/2017  17:42:54.020041	-5.024317E-2	1.064948E-2	1.391770E-2	-1.014905E+1	1.457878E-2	1.946206E-2	7.968532E-2	4.182269E-2
10/19/2017  17:42:54.021041	1.378647E-1	1.064948E-2	1.137250E-2	-1.013378E+1	2.732853E-2	1.691808E-2	7.459952E-2	4.182269E-2
10/19/2017  17:42:54.022041	-3.578249E-1	1.828100E-2	1.900811E-2	-1.014142E+1	2.222863E-2	2.709402E-2	6.951371E-2	2.147136E-2
10/19/2017  17:42:54.023041	2.675065E-1	1.064948E-2	2.409852E-2	-1.013632E+1	1.457878E-2	2.455003E-2	7.968532E-2	2.147136E-2
10/19/2017  17:42:54.024041	6.923072E-2	1.064948E-2	1.900811E-2	-1.011850E+1	2.222863E-2	1.946206E-2	7.459952E-2	3.419094E-2
10/19/2017  17:42:54.025041	-4.007518E-2	5.561801E-3	2.155331E-2	-1.013887E+1	2.987847E-2	2.709402E-2	7.459952E-2	2.655919E-2
10/19/2017  17:42:54.026041	-2.154730E-1	1.064948E-2	2.155331E-2	-1.014142E+1	1.457878E-2	2.963800E-2	8.477112E-2	3.164702E-2
10/19/2017  17:42:54.027041	-2.815650E-1	1.828100E-2	1.137250E-2	-1.013378E+1	2.477858E-2	9.286120E-3	6.951371E-2	3.927877E-2
10/19/2017  17:42:54.028041	2.014146E-1	2.082484E-2	1.137250E-2	-1.014651E+1	2.222863E-2	2.709402E-2	6.697081E-2	2.655919E-2
10/19/2017  17:42:54.029041	1.276680E+0	1.319332E-2	3.173413E-2	-1.013632E+1	1.457878E-2	2.709402E-2	7.968532E-2	3.673486E-2
10/19/2017  17:42:54.030041	5.700043E-1	1.064948E-2	1.646291E-2	-1.012359E+1	2.222863E-2	1.437409E-2	6.442791E-2	3.673486E-2
10/19/2017  17:42:54.031041	6.923072E-2	1.319332E-2	1.137250E-2	-1.013378E+1	1.967868E-2	2.200605E-2	7.205661E-2	2.401527E-2
10/19/2017  17:42:54.032041	-1.382250E+0	8.105642E-3	2.409852E-2	-1.014651E+1	1.457878E-2	2.455003E-2	7.714242E-2	3.164702E-2
10/19/2017  17:42:54.033041	-2.230990E-1	8.105642E-3	1.391770E-2	-1.013123E+1	2.222863E-2	3.981394E-2	7.205661E-2	2.910311E-2
10/19/2017  17:42:54.034041	1.632846E-1	3.608789E-2	1.391770E-2	-1.014142E+1	2.732853E-2	2.709402E-2	7.205661E-2	2.147136E-2
10/19/2017  17:42:54.035041	-6.577806E-1	1.319332E-2	2.664372E-2	-1.013632E+1	1.457878E-2	2.200605E-2	7.968532E-2	3.419094E-2
								
10/19/2017  17:42:54.036041	-7.950485E-1	5.561801E-3	1.137250E-2	-1.011850E+1	1.457878E-2	1.437409E-2	6.697081E-2	2.655919E-2
10/19/2017  17:42:54.037041	5.906273E-2	2.082484E-2	1.137250E-2	-1.015160E+1	2.222863E-2	2.455003E-2	7.205661E-2	3.164702E-2
10/19/2017  17:42:54.038041	6.538902E-1	1.319332E-2	2.155331E-2	-1.012869E+1	1.829045E-3	1.437409E-2	7.968532E-2	4.182269E-2
10/19/2017  17:42:54.039041	9.030060E-1	1.064948E-2	1.646291E-2	-1.013887E+1	2.477858E-2	1.946206E-2	6.697081E-2	3.673486E-2
10/19/2017  17:42:54.040041	1.223298E+0	1.828100E-2	1.900811E-2	-1.014396E+1	1.967868E-2	2.709402E-2	7.714242E-2	1.892744E-2
10/19/2017  17:42:54.041041	1.172458E+0	1.064948E-2	2.664372E-2	-1.012614E+1	1.457878E-2	1.183011E-2	7.968532E-2	3.419094E-2
10/19/2017  17:42:54.042041	6.183022E-1	1.064948E-2	1.391770E-2	-1.013378E+1	2.987847E-2	1.946206E-2	6.951371E-2	4.182269E-2
10/19/2017  17:42:54.043041	-5.408487E-1	2.082484E-2	1.646291E-2	-1.012105E+1	1.202884E-2	2.963800E-2	7.714242E-2	2.401527E-2
10/19/2017  17:42:54.044041	3.361405E-1	5.561801E-3	2.664372E-2	-1.013378E+1	1.712873E-2	1.183011E-2	7.968532E-2	3.419094E-2
10/19/2017  17:42:54.045041	1.124447E-1	8.105642E-3	8.827299E-3	-1.013887E+1	2.987847E-2	1.437409E-2	5.679920E-2	2.147136E-2
10/19/2017  17:42:54.046041	6.538902E-1	1.064948E-2	1.137250E-2	-1.014651E+1	1.712873E-2	2.455003E-2	7.205661E-2	2.147136E-2
10/19/2017  17:42:54.047041	-3.629089E-1	1.573716E-2	1.900811E-2	-1.013887E+1	1.712873E-2	1.946206E-2	8.222822E-2	3.927877E-2
10/19/2017  17:42:54.048041	-7.543765E-1	1.064948E-2	6.282096E-3	-1.013378E+1	2.987847E-2	1.437409E-2	6.697081E-2	3.164702E-2
10/19/2017  17:42:54.049041	-3.527409E-1	1.573716E-2	1.900811E-2	-1.014142E+1	1.967868E-2	2.709402E-2	6.188501E-2	3.164702E-2
10/19/2017  17:42:54.050041	-1.951370E-1	1.064948E-2	2.664372E-2	-1.013887E+1	1.202884E-2	9.286120E-3	7.205661E-2	2.655919E-2
10/19/2017  17:42:54.051041	-1.976790E-1	2.082484E-2	1.900811E-2	-1.013887E+1	3.242842E-2	1.946206E-2	6.951371E-2	3.164702E-2
10/19/2017  17:42:54.052041	-6.041116E-2	2.082484E-2	1.900811E-2	-1.014396E+1	1.967868E-2	4.490191E-2	7.459952E-2	3.164702E-2
10/19/2017  17:42:54.053041	-2.228120E-2	2.591253E-2	2.155331E-2	-1.013378E+1	1.712873E-2	1.437409E-2	8.222822E-2	3.419094E-2
10/19/2017  17:42:54.054041	-9.599913E-2	8.105642E-3	1.137250E-2	-1.013378E+1	2.477858E-2	9.286120E-3	6.951371E-2	2.147136E-2
10/19/2017  17:42:54.055041	-1.798851E-1	1.064948E-2	1.646291E-2	-1.015160E+1	1.712873E-2	2.709402E-2	7.205661E-2	2.401527E-2
10/19/2017  17:42:54.056041	3.138778E-3	1.064948E-2	2.664372E-2	-1.013123E+1	2.477858E-2	1.946206E-2	7.205661E-2	3.419094E-2
10/19/2017  17:42:54.057041	-6.295316E-2	8.105642E-3	1.646291E-2	-1.012614E+1	3.242842E-2	1.946206E-2	7.714242E-2	3.164702E-2
10/19/2017  17:42:54.058041	5.143673E-2	2.082484E-2	1.646291E-2	-1.015160E+1	2.222863E-2	2.455003E-2	7.459952E-2	2.401527E-2
10/19/2017  17:42:54.059041	-5.179708E-1	1.064948E-2	2.664372E-2	-1.013887E+1	-7.209035E-4	2.200605E-2	7.205661E-2	2.401527E-2
10/19/2017  17:42:54.060041	-6.450706E-1	8.105642E-3	1.646291E-2	-1.013887E+1	2.732853E-2	1.437409E-2	6.697081E-2	3.927877E-2
10/19/2017  17:42:54.061041	-4.340848E-1	2.082484E-2	1.900811E-2	-1.013887E+1	2.222863E-2	2.455003E-2	7.459952E-2	3.927877E-2
10/19/2017  17:42:54.062041	5.680776E-3	1.319332E-2	2.664372E-2	-1.011850E+1	1.202884E-2	9.286120E-3	7.714242E-2	3.673486E-2
10/19/2017  17:42:54.063041	1.175000E+0	5.561801E-3	1.646291E-2	-1.013632E+1	1.712873E-2	1.946206E-2	7.205661E-2	2.655919E-2
10/19/2017  17:42:54.064041	2.156211E+0	1.828100E-2	1.900811E-2	-1.013632E+1	2.222863E-2	2.455003E-2	7.714242E-2	2.147136E-2
10/19/2017  17:42:54.065041	2.278227E+0	1.828100E-2	2.409852E-2	-1.013123E+1	1.712873E-2	1.946206E-2	7.968532E-2	3.164702E-2
10/19/2017  17:42:54.066041	9.258839E-1	3.017961E-3	1.137250E-2	-1.012359E+1	2.477858E-2	1.437409E-2	5.934210E-2	3.419094E-2
10/19/2017  17:42:54.067041	-8.357205E-1	1.828100E-2	6.282096E-3	-1.014905E+1	1.967868E-2	2.200605E-2	7.205661E-2	2.147136E-2
10/19/2017  17:42:54.068041	-9.246904E-1	1.064948E-2	1.391770E-2	-1.013887E+1	2.477858E-2	1.946206E-2	6.697081E-2	3.164702E-2
								
10/19/2017  17:42:54.069041	-1.087378E+0	1.573716E-2	6.282096E-3	-1.014142E+1	1.202884E-2	2.709402E-2	7.205661E-2	3.164702E-2
10/19/2017  17:42:54.070041	-3.807029E-1	2.591253E-2	2.155331E-2	-1.013632E+1	2.477858E-2	2.709402E-2	7.459952E-2	2.655919E-2
10/19/2017  17:42:54.071041	-2.129310E-1	1.064948E-2	2.409852E-2	-1.013887E+1	1.967868E-2	6.742135E-3	7.714242E-2	3.164702E-2
10/19/2017  17:42:54.072041	8.852120E-1	5.561801E-3	1.137250E-2	-1.013887E+1	2.222863E-2	1.946206E-2	6.951371E-2	2.910311E-2
10/19/2017  17:42:54.073041	-4.162908E-1	1.319332E-2	2.155331E-2	-1.013632E+1	2.222863E-2	3.218199E-2	7.205661E-2	3.419094E-2
10/19/2017  17:42:54.074041	-1.570071E-1	2.845637E-2	1.900811E-2	-1.014142E+1	1.967868E-2	1.691808E-2	7.459952E-2	3.164702E-2
10/19/2017  17:42:54.075041	-1.036251E-1	1.064948E-2	1.646291E-2	-1.013887E+1	2.732853E-2	1.946206E-2	7.459952E-2	3.673486E-2
10/19/2017  17:42:54.076041	3.081785E-1	2.082484E-2	1.646291E-2	-1.012869E+1	6.928941E-3	2.455003E-2	7.714242E-2	2.910311E-2
10/19/2017  17:42:54.077041	-3.753318E-2	1.064948E-2	2.155331E-2	-1.013887E+1	1.967868E-2	1.691808E-2	7.459952E-2	3.419094E-2
10/19/2017  17:42:54.078041	1.276967E-1	1.064948E-2	1.900811E-2	-1.013123E+1	4.007827E-2	1.946206E-2	7.205661E-2	3.419094E-2
10/19/2017  17:42:54.079041	3.946064E-1	1.828100E-2	2.155331E-2	-1.013123E+1	1.712873E-2	2.709402E-2	7.459952E-2	2.401527E-2
10/19/2017  17:42:54.080041	-1.773431E-1	1.064948E-2	2.664372E-2	-1.013378E+1	1.457878E-2	1.946206E-2	7.968532E-2	2.910311E-2
10/19/2017  17:42:54.081041	1.276967E-1	5.561801E-3	1.391770E-2	-1.014142E+1	1.712873E-2	1.183011E-2	7.205661E-2	2.910311E-2
10/19/2017  17:42:54.082041	4.810343E-1	8.105642E-3	1.646291E-2	-1.013632E+1	2.477858E-2	1.946206E-2	6.697081E-2	3.673486E-2
10/19/2017  17:42:54.083041	2.954685E-1	8.105642E-3	1.646291E-2	-1.013123E+1	1.967868E-2	2.455003E-2	8.222822E-2	3.164702E-2
10/19/2017  17:42:54.084041	9.973469E-2	2.082484E-2	1.391770E-2	-1.013378E+1	1.967868E-2	1.691808E-2	7.459952E-2	3.673486E-2
10/19/2017  17:42:54.085041	8.448270E-2	1.064948E-2	1.137250E-2	-1.014651E+1	3.242842E-2	1.437409E-2	5.934210E-2	2.910311E-2
10/19/2017  17:42:54.086041	-4.035809E-1	1.064948E-2	1.900811E-2	-1.014142E+1	1.712873E-2	2.455003E-2	7.459952E-2	2.910311E-2
10/19/2017  17:42:54.087041	-1.112511E-1	5.561801E-3	2.155331E-2	-1.012869E+1	1.712873E-2	2.455003E-2	7.714242E-2	3.927877E-2
10/19/2017  17:42:54.088041	5.143673E-2	5.561801E-3	2.664372E-2	-1.013632E+1	2.477858E-2	1.946206E-2	7.459952E-2	3.164702E-2
10/19/2017  17:42:54.089041	8.470820E-1	1.319332E-2	1.900811E-2	-1.014142E+1	2.477858E-2	2.200605E-2	6.951371E-2	2.655919E-2
10/19/2017  17:42:54.090041	2.430747E+0	1.064948E-2	3.173413E-2	-1.014142E+1	6.928941E-3	2.709402E-2	7.968532E-2	2.910311E-2
10/19/2017  17:42:54.091041	2.031653E+0	1.573716E-2	1.391770E-2	-1.013123E+1	2.477858E-2	1.437409E-2	7.459952E-2	3.673486E-2
10/19/2017  17:42:54.092041	-3.476569E-1	1.064948E-2	1.391770E-2	-1.013378E+1	2.732853E-2	3.218199E-2	6.442791E-2	3.927877E-2
10/19/2017  17:42:54.093041	-6.323606E-1	1.319332E-2	1.900811E-2	-1.014396E+1	1.712873E-2	2.455003E-2	7.205661E-2	3.164702E-2
10/19/2017  17:42:54.094041	-1.234814E+0	1.319332E-2	2.155331E-2	-1.014651E+1	1.457878E-2	9.286120E-3	7.968532E-2	2.655919E-2
10/19/2017  17:42:54.095041	-8.636824E-1	3.100021E-2	1.900811E-2	-1.014651E+1	1.712873E-2	1.946206E-2	7.459952E-2	3.164702E-2
10/19/2017  17:42:54.096041	-3.756189E-1	1.319332E-2	1.646291E-2	-1.013632E+1	2.222863E-2	2.200605E-2	7.205661E-2	2.401527E-2
10/19/2017  17:42:54.097041	-2.281830E-1	1.064948E-2	1.646291E-2	-1.013123E+1	3.497837E-2	1.946206E-2	7.714242E-2	2.655919E-2
10/19/2017  17:42:54.098041	5.397873E-2	1.319332E-2	1.137250E-2	-1.014396E+1	1.457878E-2	1.437409E-2	7.459952E-2	3.927877E-2
10/19/2017  17:42:54.099041	2.166666E-1	1.319332E-2	1.137250E-2	-1.013632E+1	3.497837E-2	1.946206E-2	6.188501E-2	3.927877E-2
10/19/2017  17:42:54.100041	-3.451149E-1	1.064948E-2	2.155331E-2	-1.013123E+1	2.222863E-2	2.963800E-2	7.459952E-2	2.147136E-2
10/19/2017  17:42:54.101041	-7.823385E-1	1.573716E-2	2.664372E-2	-1.013887E+1	1.457878E-2	1.691808E-2	8.222822E-2	2.655919E-2
								
10/19/2017  17:42:54.102041	-1.331410E+0	4.741205E-4	2.409852E-2	-1.015669E+1	2.222863E-2	1.437409E-2	6.951371E-2	2.910311E-2
10/19/2017  17:42:54.103041	-1.214478E+0	1.828100E-2	1.137250E-2	-1.014142E+1	2.477858E-2	2.963800E-2	6.951371E-2	1.383961E-2
10/19/2017  17:42:54.104041	9.411359E-1	1.828100E-2	2.155331E-2	-1.014905E+1	1.457878E-2	2.455003E-2	7.968532E-2	3.164702E-2
10/19/2017  17:42:54.105041	2.082493E+0	1.319332E-2	2.155331E-2	-1.012614E+1	1.967868E-2	1.691808E-2	7.459952E-2	3.419094E-2
10/19/2017  17:42:54.106041	-1.036251E-1	1.064948E-2	1.137250E-2	-1.014142E+1	2.477858E-2	1.946206E-2	5.934210E-2	2.401527E-2
10/19/2017  17:42:54.107041	-3.247789E-1	1.573716E-2	1.646291E-2	-1.013887E+1	1.712873E-2	2.963800E-2	7.205661E-2	2.401527E-2
10/19/2017  17:42:54.108041	-4.722148E-1	1.573716E-2	2.155331E-2	-1.014651E+1	1.712873E-2	1.946206E-2	8.477112E-2	2.655919E-2
10/19/2017  17:42:54.109041	-1.061671E-1	2.082484E-2	3.682453E-2	-1.013123E+1	2.222863E-2	1.437409E-2	7.459952E-2	3.164702E-2
10/19/2017  17:42:54.110041	-6.549516E-2	1.828100E-2	1.646291E-2	-1.013378E+1	1.967868E-2	2.200605E-2	7.205661E-2	2.147136E-2
10/19/2017  17:42:54.111041	8.165780E-1	1.319332E-2	1.137250E-2	-1.013632E+1	1.202884E-2	6.742135E-3	7.968532E-2	4.182269E-2
10/19/2017  17:42:54.112041	1.752033E+0	-4.613560E-3	1.900811E-2	-1.012869E+1	1.967868E-2	1.437409E-2	6.951371E-2	3.673486E-2
10/19/2017  17:42:54.113041	1.162290E+0	1.828100E-2	1.137250E-2	-1.013632E+1	2.732853E-2	3.981394E-2	6.951371E-2	2.655919E-2
10/19/2017  17:42:54.114041	-7.111626E-1	1.064948E-2	2.664372E-2	-1.013123E+1	1.457878E-2	2.200605E-2	7.968532E-2	2.655919E-2
10/19/2017  17:42:54.115041	-1.028912E+0	1.064948E-2	1.646291E-2	-1.013378E+1	1.967868E-2	1.437409E-2	7.459952E-2	2.147136E-2
10/19/2017  17:42:54.116041	-3.959549E-1	3.100021E-2	1.900811E-2	-1.015669E+1	2.987847E-2	2.455003E-2	7.205661E-2	2.401527E-2
10/19/2017  17:42:54.117041	-1.875110E-1	1.064948E-2	2.664372E-2	-1.013123E+1	1.712873E-2	2.455003E-2	7.968532E-2	4.182269E-2
10/19/2017  17:42:54.118041	-2.053050E-1	8.105642E-3	1.646291E-2	-1.012869E+1	3.752832E-2	2.455003E-2	7.968532E-2	4.182269E-2
10/19/2017  17:42:54.119041	-1.112511E-1	1.828100E-2	1.646291E-2	-1.014905E+1	2.222863E-2	2.455003E-2	7.205661E-2	2.147136E-2
10/19/2017  17:42:54.120041	-7.312115E-2	1.064948E-2	2.409852E-2	-1.013887E+1	4.378993E-3	2.200605E-2	7.205661E-2	2.147136E-2
10/19/2017  17:42:54.121041	5.967806E-4	3.017961E-3	1.646291E-2	-1.014142E+1	2.732853E-2	1.183011E-2	7.205661E-2	2.910311E-2
10/19/2017  17:42:54.122041	7.431471E-2	2.082484E-2	1.900811E-2	-1.013887E+1	1.967868E-2	2.709402E-2	7.459952E-2	3.673486E-2
10/19/2017  17:42:54.123041	1.531166E-1	1.064948E-2	2.918892E-2	-1.014142E+1	1.457878E-2	1.437409E-2	7.459952E-2	3.927877E-2
10/19/2017  17:42:54.124041	2.319186E-1	1.064948E-2	1.137250E-2	-1.013378E+1	2.477858E-2	2.200605E-2	6.697081E-2	2.910311E-2
10/19/2017  17:42:54.125041	1.607426E-1	1.064948E-2	1.646291E-2	-1.014142E+1	1.712873E-2	1.946206E-2	7.714242E-2	3.164702E-2
10/19/2017  17:42:54.126041	5.967806E-4	8.105642E-3	1.900811E-2	-1.014396E+1	1.202884E-2	2.455003E-2	8.222822E-2	3.673486E-2
10/19/2017  17:42:54.127041	7.939871E-2	1.064948E-2	1.391770E-2	-1.012614E+1	2.477858E-2	1.437409E-2	6.697081E-2	2.910311E-2
10/19/2017  17:42:54.128041	-8.074715E-2	1.828100E-2	1.391770E-2	-1.014905E+1	1.967868E-2	1.946206E-2	7.459952E-2	2.401527E-2
10/19/2017  17:42:54.129041	-3.349469E-1	8.105642E-3	1.646291E-2	-1.014396E+1	2.222863E-2	2.455003E-2	6.188501E-2	3.673486E-2
10/19/2017  17:42:54.130041	3.005525E-1	1.573716E-2	1.137250E-2	-1.013632E+1	2.732853E-2	2.455003E-2	6.697081E-2	3.419094E-2
10/19/2017  17:42:54.131041	7.428601E-1	2.082484E-2	2.409852E-2	-1.014142E+1	9.478889E-3	2.963800E-2	7.205661E-2	2.147136E-2
10/19/2017  17:42:54.132041	6.106762E-1	5.561801E-3	2.409852E-2	-1.013887E+1	2.222863E-2	1.183011E-2	7.714242E-2	3.419094E-2
10/19/2017  17:42:54.133041	1.330677E-2	1.064948E-2	1.137250E-2	-1.014142E+1	2.477858E-2	2.200605E-2	6.697081E-2	2.147136E-2
10/19/2017  17:42:54.134041	-4.035809E-1	1.828100E-2	1.646291E-2	-1.014142E+1	1.712873E-2	2.200605E-2	7.459952E-2	1.638352E-2
								
10/19/2017  17:42:54.135041	1.988726E-1	2.336868E-2	2.918892E-2	-1.012105E+1	2.222863E-2	1.437409E-2	7.968532E-2	3.927877E-2
10/19/2017  17:42:54.136041	3.742704E-1	1.064948E-2	1.137250E-2	-1.013887E+1	2.987847E-2	1.946206E-2	6.697081E-2	3.419094E-2
10/19/2017  17:42:54.137041	-6.549516E-2	1.573716E-2	1.900811E-2	-1.015415E+1	2.477858E-2	1.946206E-2	7.205661E-2	2.910311E-2
10/19/2017  17:42:54.138041	-2.536030E-1	1.064948E-2	1.900811E-2	-1.013887E+1	1.967868E-2	1.691808E-2	6.951371E-2	3.673486E-2
10/19/2017  17:42:54.139041	-2.358090E-1	1.064948E-2	1.900811E-2	-1.013887E+1	1.457878E-2	2.200605E-2	6.951371E-2	3.673486E-2
10/19/2017  17:42:54.140041	-1.925950E-1	1.573716E-2	2.155331E-2	-1.014396E+1	1.967868E-2	2.963800E-2	7.205661E-2	2.655919E-2
10/19/2017  17:42:54.141041	-2.053050E-1	1.064948E-2	2.155331E-2	-1.014142E+1	6.928941E-3	2.200605E-2	7.968532E-2	3.927877E-2
10/19/2017  17:42:54.142041	-1.849691E-1	1.064948E-2	1.137250E-2	-1.014142E+1	2.222863E-2	1.183011E-2	7.459952E-2	2.910311E-2
10/19/2017  17:42:54.143041	2.751325E-1	1.319332E-2	1.646291E-2	-1.014396E+1	2.222863E-2	2.455003E-2	7.205661E-2	2.655919E-2
10/19/2017  17:42:54.144041	1.096198E+0	1.064948E-2	1.900811E-2	-1.012359E+1	2.222863E-2	2.963800E-2	7.968532E-2	3.164702E-2
10/19/2017  17:42:54.145041	1.480326E-1	1.828100E-2	1.646291E-2	-1.013887E+1	1.712873E-2	2.455003E-2	7.714242E-2	3.673486E-2
10/19/2017  17:42:54.146041	-7.314986E-1	1.064948E-2	1.137250E-2	-1.014142E+1	2.477858E-2	1.437409E-2	6.188501E-2	2.910311E-2
10/19/2017  17:42:54.147041	-7.670865E-1	1.064948E-2	1.391770E-2	-1.014396E+1	1.712873E-2	2.200605E-2	7.459952E-2	3.164702E-2
10/19/2017  17:42:54.148041	-4.086648E-1	1.828100E-2	1.646291E-2	-1.014396E+1	1.967868E-2	2.200605E-2	9.239983E-2	3.673486E-2
10/19/2017  17:42:54.149041	-1.084836E+0	5.561801E-3	1.191689E-3	-1.013378E+1	2.987847E-2	1.691808E-2	6.951371E-2	2.910311E-2
10/19/2017  17:42:54.150041	-6.247347E-1	1.573716E-2	1.646291E-2	-1.014651E+1	1.712873E-2	2.963800E-2	6.442791E-2	2.655919E-2
10/19/2017  17:42:54.151041	-1.280570E+0	1.319332E-2	3.427933E-2	-1.014142E+1	1.829045E-3	1.946206E-2	7.968532E-2	3.927877E-2
10/19/2017  17:42:54.152041	1.093656E+0	1.064948E-2	1.137250E-2	-1.013632E+1	2.477858E-2	1.691808E-2	7.205661E-2	3.927877E-2
10/19/2017  17:42:54.153041	2.240097E+0	1.828100E-2	1.137250E-2	-1.013887E+1	3.242842E-2	3.218199E-2	6.951371E-2	2.655919E-2
10/19/2017  17:42:54.154041	1.922347E+0	1.064948E-2	2.409852E-2	-1.013378E+1	1.457878E-2	2.200605E-2	7.714242E-2	3.164702E-2
10/19/2017  17:42:54.155041	4.047744E-1	1.319332E-2	1.646291E-2	-1.013123E+1	2.222863E-2	4.198150E-3	7.459952E-2	3.164702E-2
10/19/2017  17:42:54.156041	1.073607E-1	1.573716E-2	1.391770E-2	-1.015415E+1	3.242842E-2	1.946206E-2	6.951371E-2	3.673486E-2
10/19/2017  17:42:54.157041	1.404067E-1	1.828100E-2	2.409852E-2	-1.013887E+1	1.967868E-2	2.963800E-2	7.968532E-2	2.401527E-2
10/19/2017  17:42:54.158041	-2.739390E-1	-9.701241E-3	2.155331E-2	-1.012869E+1	1.967868E-2	1.691808E-2	8.222822E-2	3.164702E-2
10/19/2017  17:42:54.159041	-4.086648E-1	1.319332E-2	1.137250E-2	-1.014396E+1	2.477858E-2	1.946206E-2	6.697081E-2	2.910311E-2
10/19/2017  17:42:54.160041	-3.196949E-1	2.082484E-2	2.155331E-2	-1.013632E+1	1.202884E-2	2.709402E-2	6.951371E-2	2.401527E-2
10/19/2017  17:42:54.161041	2.090406E-1	1.064948E-2	2.664372E-2	-1.013378E+1	1.457878E-2	2.200605E-2	8.477112E-2	3.164702E-2
10/19/2017  17:42:54.162041	8.445400E-1	1.064948E-2	1.900811E-2	-1.013632E+1	2.222863E-2	1.437409E-2	7.205661E-2	2.655919E-2
10/19/2017  17:42:54.163041	5.445843E-1	1.064948E-2	6.282096E-3	-1.012105E+1	2.477858E-2	1.946206E-2	6.951371E-2	2.147136E-2
10/19/2017  17:42:54.164041	4.098584E-1	1.319332E-2	2.918892E-2	-1.014651E+1	1.202884E-2	1.946206E-2	8.222822E-2	2.655919E-2
10/19/2017  17:42:54.165041	1.042816E+0	8.105642E-3	1.900811E-2	-1.011850E+1	2.222863E-2	1.183011E-2	7.968532E-2	3.673486E-2
10/19/2017  17:42:54.166041	1.047900E+0	1.573716E-2	1.137250E-2	-1.013887E+1	3.242842E-2	1.691808E-2	6.697081E-2	2.147136E-2
10/19/2017  17:42:54.167041	-1.417551E-1	1.319332E-2	1.391770E-2	-1.013887E+1	1.457878E-2	2.963800E-2	6.697081E-2	2.401527E-2
								
10/19/2017  17:42:54.168041	-1.161096E+0	-2.069720E-3	1.391770E-2	-1.013378E+1	9.478889E-3	1.183011E-2	7.205661E-2	3.164702E-2
10/19/2017  17:42:54.169041	-8.128425E-1	1.573716E-2	1.900811E-2	-1.013632E+1	2.222863E-2	2.455003E-2	6.697081E-2	2.910311E-2
10/19/2017  17:42:54.170041	-9.345713E-2	1.573716E-2	1.391770E-2	-1.014142E+1	2.477858E-2	2.963800E-2	6.951371E-2	2.655919E-2
10/19/2017  17:42:54.171041	2.141246E-1	2.591253E-2	2.155331E-2	-1.014142E+1	1.202884E-2	2.963800E-2	8.222822E-2	3.164702E-2
10/19/2017  17:42:54.172041	7.177272E-2	5.561801E-3	1.137250E-2	-1.013123E+1	1.202884E-2	1.654165E-3	7.459952E-2	3.164702E-2
10/19/2017  17:42:54.173041	5.967806E-4	1.828100E-2	1.391770E-2	-1.013887E+1	3.242842E-2	1.946206E-2	6.697081E-2	3.164702E-2
10/19/2017  17:42:54.174041	-4.442528E-1	2.082484E-2	1.900811E-2	-1.014396E+1	2.477858E-2	4.490191E-2	7.205661E-2	2.401527E-2
10/19/2017  17:42:54.175041	-3.603669E-1	-4.613560E-3	2.409852E-2	-1.012869E+1	1.712873E-2	1.437409E-2	7.968532E-2	3.419094E-2
10/19/2017  17:42:54.176041	-3.756189E-1	5.561801E-3	1.137250E-2	-1.013378E+1	2.477858E-2	1.183011E-2	6.951371E-2	2.655919E-2
10/19/2017  17:42:54.177041	-3.476569E-1	5.561801E-3	1.900811E-2	-1.015924E+1	1.457878E-2	2.709402E-2	7.205661E-2	2.910311E-2
10/19/2017  17:42:54.178041	3.361405E-1	1.319332E-2	2.664372E-2	-1.013632E+1	1.457878E-2	2.200605E-2	8.222822E-2	3.164702E-2
10/19/2017  17:42:54.179041	1.421573E+0	1.064948E-2	2.155331E-2	-1.012614E+1	2.987847E-2	2.200605E-2	7.968532E-2	3.164702E-2
10/19/2017  17:42:54.180041	-5.024317E-2	1.064948E-2	1.391770E-2	-1.012614E+1	2.222863E-2	1.946206E-2	7.459952E-2	2.401527E-2
10/19/2017  17:42:54.181041	-2.536030E-1	1.064948E-2	1.900811E-2	-1.013632E+1	6.928941E-3	2.455003E-2	7.205661E-2	3.164702E-2
10/19/2017  17:42:54.182041	-1.519231E-1	8.105642E-3	1.900811E-2	-1.011850E+1	1.967868E-2	1.183011E-2	7.459952E-2	3.673486E-2
10/19/2017  17:42:54.183041	-6.704906E-1	1.319332E-2	1.391770E-2	-1.014396E+1	2.987847E-2	2.200605E-2	6.951371E-2	2.147136E-2
10/19/2017  17:42:54.184041	1.327807E-1	1.828100E-2	2.155331E-2	-1.014396E+1	1.457878E-2	1.946206E-2	7.205661E-2	3.164702E-2
10/19/2017  17:42:54.185041	2.522546E-1	3.017961E-3	1.646291E-2	-1.013123E+1	2.732853E-2	1.437409E-2	7.205661E-2	2.655919E-2
10/19/2017  17:42:54.186041	4.581564E-1	2.082484E-2	1.391770E-2	-1.013887E+1	2.732853E-2	2.963800E-2	6.188501E-2	2.401527E-2
10/19/2017  17:42:54.187041	3.488505E-1	1.828100E-2	1.900811E-2	-1.013378E+1	2.222863E-2	2.200605E-2	7.968532E-2	3.164702E-2
10/19/2017  17:42:54.188041	6.411802E-1	8.105642E-3	1.646291E-2	-1.012614E+1	2.222863E-2	1.946206E-2	7.968532E-2	3.673486E-2
10/19/2017  17:42:54.189041	6.132182E-1	1.319332E-2	1.900811E-2	-1.013378E+1	1.712873E-2	1.691808E-2	6.442791E-2	2.401527E-2
10/19/2017  17:42:54.190041	4.683244E-1	2.082484E-2	2.409852E-2	-1.014142E+1	1.457878E-2	2.709402E-2	9.239983E-2	3.164702E-2
10/19/2017  17:42:54.191041	3.412245E-1	1.828100E-2	2.918892E-2	-1.013123E+1	2.477858E-2	2.709402E-2	7.205661E-2	3.927877E-2
10/19/2017  17:42:54.192041	-6.295316E-2	1.064948E-2	1.391770E-2	-1.013887E+1	2.477858E-2	1.946206E-2	6.697081E-2	2.910311E-2
10/19/2017  17:42:54.193041	1.556586E-1	2.082484E-2	1.900811E-2	-1.014651E+1	1.712873E-2	1.946206E-2	7.205661E-2	2.147136E-2
10/19/2017  17:42:54.194041	1.887046E-1	4.741205E-4	2.409852E-2	-1.014142E+1	2.222863E-2	1.946206E-2	7.714242E-2	2.910311E-2
10/19/2017  17:42:54.195041	-1.163351E-1	1.064948E-2	1.646291E-2	-1.013632E+1	1.967868E-2	3.472597E-2	7.205661E-2	3.673486E-2
10/19/2017  17:42:54.196041	-7.518345E-1	1.064948E-2	1.646291E-2	-1.013887E+1	3.242842E-2	2.455003E-2	7.205661E-2	2.401527E-2
10/19/2017  17:42:54.197041	-4.007518E-2	2.082484E-2	2.155331E-2	-1.013887E+1	1.457878E-2	1.946206E-2	7.968532E-2	2.910311E-2
10/19/2017  17:42:54.198041	3.259725E-1	-7.157401E-3	1.900811E-2	-1.013123E+1	1.712873E-2	1.437409E-2	7.205661E-2	3.673486E-2
10/19/2017  17:42:54.199041	5.903402E-1	1.064948E-2	1.137250E-2	-1.013378E+1	2.732853E-2	2.455003E-2	6.697081E-2	2.910311E-2
10/19/2017  17:42:54.200041	9.131740E-1	1.828100E-2	1.646291E-2	-1.014142E+1	4.007827E-2	2.200605E-2	7.459952E-2	2.147136E-2
								
10/19/2017  17:42:54.201041	4.124004E-1	1.319332E-2	1.391770E-2	-1.012614E+1	2.222863E-2	1.946206E-2	6.697081E-2	3.164702E-2
10/19/2017  17:42:54.202041	-1.021286E+0	3.017961E-3	1.646291E-2	-1.013632E+1	1.967868E-2	1.183011E-2	5.679920E-2	2.147136E-2
10/19/2017  17:42:54.203041	-1.305990E+0	2.082484E-2	6.282096E-3	-1.015160E+1	2.987847E-2	2.709402E-2	6.188501E-2	2.655919E-2
10/19/2017  17:42:54.204041	8.194071E-2	1.064948E-2	2.918892E-2	-1.013632E+1	1.712873E-2	2.455003E-2	7.968532E-2	3.927877E-2
10/19/2017  17:42:54.205041	1.693567E+0	1.064948E-2	2.664372E-2	-1.011086E+1	2.477858E-2	2.200605E-2	7.714242E-2	3.673486E-2
10/19/2017  17:42:54.206041	2.064986E-1	1.064948E-2	8.827299E-3	-1.013887E+1	2.987847E-2	1.946206E-2	6.951371E-2	2.147136E-2
10/19/2017  17:42:54.207041	-1.033996E+0	1.828100E-2	2.155331E-2	-1.013123E+1	2.222863E-2	1.183011E-2	6.951371E-2	2.910311E-2
10/19/2017  17:42:54.208041	-6.272767E-1	3.017961E-3	2.664372E-2	-1.013378E+1	2.477858E-2	2.455003E-2	7.205661E-2	4.182269E-2
10/19/2017  17:42:54.209041	2.471706E-1	1.573716E-2	1.137250E-2	-1.013887E+1	2.987847E-2	2.200605E-2	7.714242E-2	2.910311E-2
10/19/2017  17:42:54.210041	4.174844E-1	2.082484E-2	2.409852E-2	-1.014651E+1	1.457878E-2	2.709402E-2	8.222822E-2	2.655919E-2
10/19/2017  17:42:54.211041	-4.722148E-1	5.561801E-3	2.664372E-2	-1.013123E+1	1.457878E-2	1.183011E-2	7.968532E-2	4.182269E-2
10/19/2017  17:42:54.212041	-8.074715E-2	1.319332E-2	1.900811E-2	-1.013887E+1	2.477858E-2	1.946206E-2	6.442791E-2	2.910311E-2
10/19/2017  17:42:54.213041	4.810343E-1	2.082484E-2	1.900811E-2	-1.013632E+1	2.222863E-2	2.709402E-2	7.459952E-2	2.910311E-2
10/19/2017  17:42:54.214041	-3.476569E-1	1.319332E-2	2.664372E-2	-1.013378E+1	2.732853E-2	2.455003E-2	7.968532E-2	3.419094E-2
10/19/2017  17:42:54.215041	-9.599913E-2	-4.613560E-3	1.137250E-2	-1.012869E+1	2.987847E-2	1.437409E-2	6.188501E-2	3.164702E-2
10/19/2017  17:42:54.216041	-4.137488E-1	1.828100E-2	1.391770E-2	-1.014396E+1	2.477858E-2	2.963800E-2	7.205661E-2	3.164702E-2
10/19/2017  17:42:54.217041	-6.526966E-1	2.336868E-2	2.409852E-2	-1.014142E+1	2.222863E-2	1.946206E-2	7.714242E-2	3.673486E-2
10/19/2017  17:42:54.218041	4.632404E-1	5.561801E-3	1.137250E-2	-1.012614E+1	2.987847E-2	2.200605E-2	6.442791E-2	3.927877E-2
10/19/2017  17:42:54.219041	6.411802E-1	1.573716E-2	8.827299E-3	-1.013378E+1	4.262821E-2	2.709402E-2	7.459952E-2	2.147136E-2
10/19/2017  17:42:54.220041	3.107205E-1	1.319332E-2	1.646291E-2	-1.013887E+1	1.712873E-2	2.200605E-2	7.968532E-2	3.164702E-2
10/19/2017  17:42:54.221041	-5.532717E-2	1.064948E-2	2.155331E-2	-1.012359E+1	1.967868E-2	1.691808E-2	6.951371E-2	3.419094E-2
10/19/2017  17:42:54.222041	-4.007518E-2	8.105642E-3	1.646291E-2	-1.012614E+1	2.477858E-2	2.709402E-2	7.205661E-2	3.164702E-2
10/19/2017  17:42:54.223041	-8.583114E-2	2.082484E-2	1.646291E-2	-1.014142E+1	1.967868E-2	2.455003E-2	7.205661E-2	1.892744E-2
10/19/2017  17:42:54.224041	1.988726E-1	1.064948E-2	2.409852E-2	-1.015415E+1	1.457878E-2	2.200605E-2	7.459952E-2	3.164702E-2
10/19/2017  17:42:54.225041	3.869804E-1	1.319332E-2	1.391770E-2	-1.013123E+1	2.222863E-2	1.437409E-2	7.459952E-2	4.436661E-2
10/19/2017  17:42:54.226041	6.971042E-1	1.319332E-2	1.646291E-2	-1.014651E+1	2.222863E-2	1.183011E-2	7.714242E-2	2.401527E-2
10/19/2017  17:42:54.227041	6.462642E-1	1.828100E-2	2.918892E-2	-1.013632E+1	1.967868E-2	1.946206E-2	7.714242E-2	2.655919E-2
10/19/2017  17:42:54.228041	3.615605E-1	3.017961E-3	1.646291E-2	-1.013378E+1	1.967868E-2	2.455003E-2	7.459952E-2	3.673486E-2
10/19/2017  17:42:54.229041	-3.883289E-1	5.561801E-3	8.827299E-3	-1.014396E+1	2.477858E-2	2.455003E-2	6.951371E-2	2.147136E-2
10/19/2017  17:42:54.230041	-2.942750E-1	1.319332E-2	2.409852E-2	-1.013887E+1	1.457878E-2	1.946206E-2	7.714242E-2	3.164702E-2
10/19/2017  17:42:54.231041	-1.417551E-1	3.017961E-3	2.918892E-2	-1.013123E+1	2.477858E-2	2.200605E-2	6.697081E-2	3.673486E-2
10/19/2017  17:42:54.232041	5.652073E-2	1.828100E-2	8.827299E-3	-1.014651E+1	2.222863E-2	2.963800E-2	6.951371E-2	2.147136E-2
10/19/2017  17:42:54.233041	-7.029213E-3	1.064948E-2	8.827299E-3	-1.013378E+1	9.478889E-3	1.437409E-2	7.714242E-2	2.910311E-2
								
10/19/2017  17:42:54.234041	9.973469E-2	5.561801E-3	1.900811E-2	-1.013887E+1	2.477858E-2	1.946206E-2	7.459952E-2	2.910311E-2
10/19/2017  17:42:54.235041	5.143673E-2	1.319332E-2	1.646291E-2	-1.013632E+1	2.732853E-2	4.490191E-2	7.205661E-2	2.910311E-2
10/19/2017  17:42:54.236041	1.607426E-1	1.828100E-2	2.664372E-2	-1.013123E+1	1.457878E-2	2.200605E-2	8.222822E-2	2.910311E-2
10/19/2017  17:42:54.237041	-2.482320E-2	8.105642E-3	1.900811E-2	-1.013887E+1	1.967868E-2	9.286120E-3	7.205661E-2	2.147136E-2
10/19/2017  17:42:54.238041	-2.764810E-1	1.319332E-2	1.646291E-2	-1.014396E+1	1.967868E-2	2.200605E-2	7.205661E-2	2.147136E-2
10/19/2017  17:42:54.239041	1.327807E-1	1.064948E-2	1.391770E-2	-1.014142E+1	1.457878E-2	2.455003E-2	7.968532E-2	3.164702E-2
10/19/2017  17:42:54.240041	-1.671751E-1	1.064948E-2	1.646291E-2	-1.012614E+1	2.222863E-2	1.437409E-2	7.459952E-2	2.910311E-2
10/19/2017  17:42:54.241041	1.098740E+0	1.319332E-2	1.137250E-2	-1.014651E+1	2.477858E-2	2.455003E-2	6.697081E-2	2.147136E-2
10/19/2017  17:42:54.242041	5.166223E-1	1.828100E-2	2.664372E-2	-1.013887E+1	1.202884E-2	2.455003E-2	7.459952E-2	2.655919E-2
10/19/2017  17:42:54.243041	-4.061229E-1	1.064948E-2	1.391770E-2	-1.012614E+1	2.222863E-2	1.437409E-2	7.968532E-2	3.673486E-2
10/19/2017  17:42:54.244041	-3.069849E-1	1.319332E-2	1.391770E-2	-1.014142E+1	2.732853E-2	2.455003E-2	6.697081E-2	2.401527E-2
10/19/2017  17:42:54.245041	-3.374889E-1	1.828100E-2	2.664372E-2	-1.011850E+1	2.222863E-2	2.963800E-2	7.714242E-2	2.655919E-2
10/19/2017  17:42:54.246041	-2.434350E-1	4.741205E-4	1.900811E-2	-1.012869E+1	1.457878E-2	9.286120E-3	7.714242E-2	2.401527E-2
10/19/2017  17:42:54.247041	-2.990719E-2	3.017961E-3	1.137250E-2	-1.014905E+1	2.987847E-2	9.286120E-3	7.205661E-2	3.164702E-2
10/19/2017  17:42:54.248041	5.906273E-2	2.082484E-2	2.155331E-2	-1.014396E+1	2.222863E-2	2.963800E-2	7.205661E-2	2.655919E-2
10/19/2017  17:42:54.249041	1.429487E-1	1.064948E-2	2.664372E-2	-1.014396E+1	1.202884E-2	1.691808E-2	7.968532E-2	3.927877E-2
10/19/2017  17:42:54.250041	1.734526E-1	8.105642E-3	1.191689E-3	-1.014142E+1	2.477858E-2	1.691808E-2	6.697081E-2	2.910311E-2
10/19/2017  17:42:54.251041	6.923072E-2	1.573716E-2	1.646291E-2	-1.014651E+1	1.967868E-2	2.709402E-2	6.442791E-2	2.910311E-2
10/19/2017  17:42:54.252041	2.093276E-2	1.573716E-2	3.173413E-2	-1.013887E+1	2.477858E-2	1.691808E-2	7.205661E-2	3.927877E-2
10/19/2017  17:42:54.253041	-1.465521E-2	1.828100E-2	1.137250E-2	-1.013123E+1	2.987847E-2	1.946206E-2	6.951371E-2	2.147136E-2
10/19/2017  17:42:54.254041	-4.487215E-3	1.828100E-2	2.409852E-2	-1.014142E+1	9.478889E-3	3.981394E-2	7.459952E-2	2.910311E-2
10/19/2017  17:42:54.255041	1.836206E-1	-2.069720E-3	2.409852E-2	-1.013378E+1	1.457878E-2	1.691808E-2	7.968532E-2	4.182269E-2
10/19/2017  17:42:54.256041	5.397873E-2	1.319332E-2	1.391770E-2	-1.013887E+1	2.732853E-2	2.963800E-2	6.951371E-2	2.910311E-2
10/19/2017  17:42:54.257041	1.076477E-2	3.354405E-2	2.155331E-2	-1.013632E+1	2.732853E-2	2.963800E-2	7.714242E-2	2.401527E-2
10/19/2017  17:42:54.258041	-3.244919E-2	1.064948E-2	2.409852E-2	-1.013887E+1	1.457878E-2	2.455003E-2	7.968532E-2	3.164702E-2
10/19/2017  17:42:54.259041	6.414672E-2	5.561801E-3	1.900811E-2	-1.012105E+1	1.202884E-2	2.455003E-2	7.968532E-2	3.419094E-2
10/19/2017  17:42:54.260041	1.937886E-1	1.319332E-2	1.900811E-2	-1.014396E+1	1.457878E-2	1.691808E-2	7.714242E-2	2.655919E-2
10/19/2017  17:42:54.261041	3.666444E-1	1.573716E-2	1.391770E-2	-1.013123E+1	6.928941E-3	2.200605E-2	6.951371E-2	3.927877E-2
10/19/2017  17:42:54.262041	5.700043E-1	8.105642E-3	1.137250E-2	-1.012614E+1	1.967868E-2	2.200605E-2	7.459952E-2	3.673486E-2
10/19/2017  17:42:54.263041	6.259282E-1	1.064948E-2	1.391770E-2	-1.013887E+1	2.477858E-2	1.946206E-2	7.205661E-2	2.147136E-2
10/19/2017  17:42:54.264041	-1.061671E-1	1.573716E-2	1.900811E-2	-1.015415E+1	1.457878E-2	2.709402E-2	8.222822E-2	3.164702E-2
10/19/2017  17:42:54.265041	-4.366268E-1	5.561801E-3	2.918892E-2	-1.013632E+1	2.222863E-2	1.946206E-2	7.459952E-2	4.945444E-2
10/19/2017  17:42:54.266041	-3.527409E-1	1.064948E-2	1.137250E-2	-1.011850E+1	2.477858E-2	2.455003E-2	6.697081E-2	3.164702E-2
								
10/19/2017  17:42:54.267041	-2.358090E-1	1.064948E-2	1.391770E-2	-1.014142E+1	2.222863E-2	2.200605E-2	7.205661E-2	1.892744E-2
10/19/2017  17:42:54.268041	6.513482E-1	1.064948E-2	1.391770E-2	-1.013632E+1	1.202884E-2	6.742135E-3	7.714242E-2	3.673486E-2
10/19/2017  17:42:54.269041	1.200707E-1	5.561801E-3	1.137250E-2	-1.014142E+1	2.477858E-2	2.455003E-2	6.951371E-2	3.419094E-2
10/19/2017  17:42:54.270041	-7.696285E-1	2.082484E-2	2.155331E-2	-1.013378E+1	1.967868E-2	2.455003E-2	7.968532E-2	2.655919E-2
10/19/2017  17:42:54.271041	-1.369540E+0	1.319332E-2	3.936974E-2	-1.013887E+1	1.967868E-2	2.963800E-2	7.968532E-2	3.673486E-2
10/19/2017  17:42:54.272041	2.293766E-1	8.105642E-3	1.646291E-2	-1.013632E+1	1.967868E-2	2.455003E-2	7.205661E-2	3.419094E-2
10/19/2017  17:42:54.273041	3.564765E-1	1.319332E-2	2.664372E-2	-1.013123E+1	1.457878E-2	1.437409E-2	7.205661E-2	2.401527E-2
10/19/2017  17:42:54.274041	2.090406E-1	2.082484E-2	2.409852E-2	-1.013378E+1	1.712873E-2	2.200605E-2	8.222822E-2	3.164702E-2
10/19/2017  17:42:54.275041	3.437665E-1	8.105642E-3	1.900811E-2	-1.012869E+1	2.477858E-2	2.963800E-2	6.951371E-2	4.182269E-2
10/19/2017  17:42:54.276041	3.920644E-1	1.573716E-2	1.137250E-2	-1.012869E+1	2.477858E-2	2.200605E-2	6.951371E-2	2.147136E-2
10/19/2017  17:42:54.277041	1.531166E-1	1.828100E-2	2.155331E-2	-1.014651E+1	2.222863E-2	2.455003E-2	7.968532E-2	2.147136E-2
10/19/2017  17:42:54.278041	-8.074715E-2	3.017961E-3	2.664372E-2	-1.014142E+1	1.829045E-3	1.183011E-2	7.459952E-2	4.182269E-2
10/19/2017  17:42:54.279041	4.429044E-1	5.561801E-3	1.900811E-2	-1.013887E+1	2.987847E-2	1.946206E-2	6.951371E-2	3.164702E-2
10/19/2017  17:42:54.280041	3.437665E-1	2.082484E-2	1.646291E-2	-1.013887E+1	3.242842E-2	2.200605E-2	7.968532E-2	2.147136E-2
10/19/2017  17:42:54.281041	1.683686E-1	1.319332E-2	2.155331E-2	-1.014905E+1	1.457878E-2	1.946206E-2	7.714242E-2	2.910311E-2
10/19/2017  17:42:54.282041	8.702470E-2	5.561801E-3	1.391770E-2	-1.012869E+1	1.457878E-2	1.183011E-2	6.442791E-2	3.419094E-2
10/19/2017  17:42:54.283041	7.177272E-2	1.828100E-2	6.282096E-3	-1.013632E+1	2.477858E-2	2.963800E-2	6.951371E-2	2.401527E-2
10/19/2017  17:42:54.284041	7.431471E-2	2.082484E-2	2.409852E-2	-1.014651E+1	2.222863E-2	1.946206E-2	7.459952E-2	3.164702E-2
10/19/2017  17:42:54.285041	-4.487215E-3	8.105642E-3	2.409852E-2	-1.013123E+1	1.967868E-2	1.183011E-2	7.205661E-2	3.673486E-2
10/19/2017  17:42:54.286041	-1.239611E-1	2.082484E-2	8.827299E-3	-1.014396E+1	2.477858E-2	2.200605E-2	6.697081E-2	2.147136E-2
10/19/2017  17:42:54.287041	-3.244919E-2	2.336868E-2	2.664372E-2	-1.016178E+1	1.457878E-2	1.946206E-2	6.951371E-2	2.910311E-2
10/19/2017  17:42:54.288041	2.344606E-1	1.064948E-2	1.900811E-2	-1.013378E+1	2.477858E-2	2.200605E-2	7.205661E-2	2.910311E-2
10/19/2017  17:42:54.289041	4.047744E-1	8.105642E-3	1.646291E-2	-1.013632E+1	1.967868E-2	1.691808E-2	8.222822E-2	3.164702E-2
10/19/2017  17:42:54.290041	5.652073E-2	1.573716E-2	1.646291E-2	-1.014142E+1	1.967868E-2	2.709402E-2	7.205661E-2	2.655919E-2
10/19/2017  17:42:54.291041	-8.328914E-2	1.828100E-2	2.664372E-2	-1.014142E+1	1.712873E-2	2.200605E-2	8.222822E-2	3.673486E-2
10/19/2017  17:42:54.292041	7.431471E-2	8.105642E-3	2.918892E-2	-1.012869E+1	1.712873E-2	2.709402E-2	7.459952E-2	3.419094E-2
10/19/2017  17:42:54.293041	5.166223E-1	1.573716E-2	1.137250E-2	-1.013887E+1	3.242842E-2	2.455003E-2	6.951371E-2	2.655919E-2
10/19/2017  17:42:54.294041	5.776303E-1	1.319332E-2	2.155331E-2	-1.013887E+1	1.967868E-2	9.286120E-3	7.714242E-2	2.655919E-2
10/19/2017  17:42:54.295041	-3.244919E-2	-2.069720E-3	1.900811E-2	-1.013378E+1	2.987847E-2	1.437409E-2	7.205661E-2	3.673486E-2
10/19/2017  17:42:54.296041	-6.526966E-1	1.828100E-2	1.137250E-2	-1.014142E+1	2.732853E-2	3.218199E-2	7.205661E-2	3.164702E-2
10/19/2017  17:42:54.297041	-4.772988E-1	2.336868E-2	2.664372E-2	-1.013378E+1	2.222863E-2	1.691808E-2	8.731403E-2	2.655919E-2
10/19/2017  17:42:54.298041	-1.010831E-1	8.105642E-3	1.646291E-2	-1.013378E+1	1.967868E-2	1.691808E-2	7.459952E-2	2.910311E-2
10/19/2017  17:42:54.299041	-2.841070E-1	5.561801E-3	1.137250E-2	-1.013378E+1	2.732853E-2	2.200605E-2	6.188501E-2	2.655919E-2
								
10/19/2017  17:42:54.300041	-4.442528E-1	1.064948E-2	1.391770E-2	-1.013123E+1	2.222863E-2	2.455003E-2	7.205661E-2	3.164702E-2
10/19/2017  17:42:54.301041	-7.566315E-2	1.064948E-2	1.646291E-2	-1.012869E+1	4.007827E-2	1.183011E-2	7.968532E-2	2.655919E-2
10/19/2017  17:42:54.302041	8.114940E-1	1.319332E-2	1.646291E-2	-1.012869E+1	2.222863E-2	1.946206E-2	7.205661E-2	3.419094E-2
10/19/2017  17:42:54.303041	6.996461E-1	1.064948E-2	1.900811E-2	-1.013632E+1	2.222863E-2	2.200605E-2	7.459952E-2	2.401527E-2
10/19/2017  17:42:54.304041	2.751325E-1	1.064948E-2	1.137250E-2	-1.014142E+1	2.222863E-2	1.437409E-2	7.205661E-2	3.419094E-2
10/19/2017  17:42:54.305041	-1.519231E-1	1.828100E-2	1.137250E-2	-1.013887E+1	3.242842E-2	2.455003E-2	6.951371E-2	3.164702E-2
10/19/2017  17:42:54.306041	4.556144E-1	1.828100E-2	1.900811E-2	-1.012105E+1	1.712873E-2	3.218199E-2	7.459952E-2	3.164702E-2
10/19/2017  17:42:54.307041	5.217063E-1	1.573716E-2	2.155331E-2	-1.013632E+1	1.457878E-2	1.691808E-2	7.205661E-2	2.655919E-2
10/19/2017  17:42:54.308041	-2.586870E-1	1.573716E-2	1.391770E-2	-1.015669E+1	2.732853E-2	1.437409E-2	6.697081E-2	2.910311E-2
10/19/2017  17:42:54.309041	-3.603669E-1	1.064948E-2	2.409852E-2	-1.013632E+1	1.967868E-2	1.946206E-2	7.205661E-2	3.164702E-2
10/19/2017  17:42:54.310041	1.251547E-1	1.828100E-2	2.155331E-2	-1.013887E+1	1.967868E-2	1.946206E-2	7.714242E-2	3.164702E-2
10/19/2017  17:42:54.311041	2.547966E-1	1.064948E-2	3.173413E-2	-1.014142E+1	2.732853E-2	1.437409E-2	7.205661E-2	2.910311E-2
10/19/2017  17:42:54.312041	1.073607E-1	1.064948E-2	1.646291E-2	-1.013887E+1	1.967868E-2	2.709402E-2	6.442791E-2	2.655919E-2
10/19/2017  17:42:54.313041	8.702470E-2	1.064948E-2	1.900811E-2	-1.013632E+1	1.457878E-2	1.946206E-2	7.714242E-2	2.910311E-2
10/19/2017  17:42:54.314041	-9.571210E-3	1.064948E-2	1.646291E-2	-1.012869E+1	2.222863E-2	1.437409E-2	7.459952E-2	3.673486E-2
10/19/2017  17:42:54.315041	2.093276E-2	1.064948E-2	1.137250E-2	-1.014396E+1	2.477858E-2	1.946206E-2	6.951371E-2	3.419094E-2
10/19/2017  17:42:54.316041	6.160473E-2	8.105642E-3	1.646291E-2	-1.014651E+1	1.457878E-2	2.455003E-2	7.205661E-2	2.655919E-2
10/19/2017  17:42:54.317041	1.226127E-1	1.319332E-2	2.155331E-2	-1.013887E+1	1.712873E-2	4.198150E-3	7.968532E-2	3.164702E-2
10/19/2017  17:42:54.318041	-1.620911E-1	1.828100E-2	1.900811E-2	-1.014142E+1	2.477858E-2	1.183011E-2	7.205661E-2	4.182269E-2
10/19/2017  17:42:54.319041	4.759504E-1	2.082484E-2	1.646291E-2	-1.014651E+1	2.732853E-2	2.709402E-2	6.951371E-2	3.164702E-2
10/19/2017  17:42:54.320041	1.744407E+0	1.828100E-2	1.646291E-2	-1.013378E+1	4.378993E-3	2.455003E-2	7.714242E-2	2.401527E-2
10/19/2017  17:42:54.321041	6.157602E-1	8.105642E-3	2.155331E-2	-1.013378E+1	1.457878E-2	1.691808E-2	8.222822E-2	3.419094E-2
10/19/2017  17:42:54.322041	-4.086648E-1	1.319332E-2	1.137250E-2	-1.013887E+1	3.242842E-2	1.946206E-2	6.697081E-2	3.419094E-2
10/19/2017  17:42:54.323041	-8.535144E-1	1.573716E-2	2.409852E-2	-1.013887E+1	2.222863E-2	2.709402E-2	7.205661E-2	2.655919E-2
10/19/2017  17:42:54.324041	-2.358090E-1	1.573716E-2	1.900811E-2	-1.014142E+1	1.457878E-2	1.946206E-2	8.222822E-2	2.401527E-2
10/19/2017  17:42:54.325041	-6.882846E-1	1.573716E-2	1.900811E-2	-1.014651E+1	2.222863E-2	1.183011E-2	7.205661E-2	3.164702E-2
10/19/2017  17:42:54.326041	1.022767E-1	5.561801E-3	1.137250E-2	-1.013632E+1	2.987847E-2	2.455003E-2	6.951371E-2	1.892744E-2
10/19/2017  17:42:54.327041	-3.629089E-1	1.319332E-2	1.900811E-2	-1.011086E+1	2.222863E-2	2.963800E-2	7.714242E-2	2.910311E-2
10/19/2017  17:42:54.328041	-4.007518E-2	1.828100E-2	1.646291E-2	-1.013632E+1	1.712873E-2	9.286120E-3	8.222822E-2	3.164702E-2
10/19/2017  17:42:54.329041	8.448270E-2	8.105642E-3	1.137250E-2	-1.013123E+1	2.477858E-2	1.437409E-2	6.188501E-2	3.164702E-2
10/19/2017  17:42:54.330041	2.675065E-1	1.064948E-2	6.282096E-3	-1.013887E+1	2.477858E-2	2.709402E-2	6.951371E-2	2.401527E-2
10/19/2017  17:42:54.331041	-1.900530E-1	2.082484E-2	1.646291E-2	-1.013887E+1	2.222863E-2	2.709402E-2	8.985693E-2	3.164702E-2
10/19/2017  17:42:54.332041	-4.569628E-1	1.573716E-2	1.137250E-2	-1.013632E+1	2.477858E-2	2.200605E-2	7.205661E-2	3.419094E-2
								
10/19/2017  17:42:54.333041	-4.213748E-1	1.064948E-2	1.646291E-2	-1.013632E+1	1.457878E-2	2.200605E-2	7.205661E-2	3.164702E-2
10/19/2017  17:42:54.334041	6.005082E-1	1.064948E-2	1.646291E-2	-1.013887E+1	1.457878E-2	9.286120E-3	7.459952E-2	2.147136E-2
10/19/2017  17:42:54.335041	2.420866E-1	1.573716E-2	1.900811E-2	-1.013378E+1	2.477858E-2	1.946206E-2	7.459952E-2	2.910311E-2
10/19/2017  17:42:54.336041	-1.290451E-1	1.573716E-2	1.900811E-2	-1.013378E+1	3.242842E-2	2.455003E-2	7.205661E-2	4.182269E-2
10/19/2017  17:42:54.337041	8.702470E-2	1.319332E-2	1.900811E-2	-1.013632E+1	2.477858E-2	1.946206E-2	6.442791E-2	2.910311E-2
10/19/2017  17:42:54.338041	3.335985E-1	1.573716E-2	1.137250E-2	-1.014905E+1	2.222863E-2	1.946206E-2	7.459952E-2	1.383961E-2
10/19/2017  17:42:54.339041	4.381074E-2	1.828100E-2	2.155331E-2	-1.014142E+1	1.967868E-2	1.691808E-2	7.714242E-2	3.419094E-2
10/19/2017  17:42:54.340041	5.967806E-4	8.105642E-3	1.900811E-2	-1.013378E+1	2.222863E-2	1.691808E-2	7.205661E-2	3.673486E-2
10/19/2017  17:42:54.341041	1.429487E-1	1.064948E-2	1.137250E-2	-1.013887E+1	1.967868E-2	1.946206E-2	7.205661E-2	2.655919E-2
10/19/2017  17:42:54.342041	1.353227E-1	1.828100E-2	1.646291E-2	-1.015415E+1	2.222863E-2	2.709402E-2	7.459952E-2	2.147136E-2
10/19/2017  17:42:54.343041	1.175287E-1	8.105642E-3	2.664372E-2	-1.013887E+1	6.928941E-3	1.183011E-2	7.205661E-2	4.436661E-2
10/19/2017  17:42:54.344041	8.956670E-2	8.105642E-3	1.646291E-2	-1.013123E+1	2.222863E-2	1.691808E-2	7.459952E-2	3.419094E-2
10/19/2017  17:42:54.345041	1.022767E-1	1.319332E-2	1.137250E-2	-1.013632E+1	2.987847E-2	2.455003E-2	7.205661E-2	2.147136E-2
10/19/2017  17:42:54.346041	1.022767E-1	2.082484E-2	1.646291E-2	-1.012359E+1	1.202884E-2	2.963800E-2	7.968532E-2	2.401527E-2
10/19/2017  17:42:54.347041	9.719269E-2	8.105642E-3	1.900811E-2	-1.012869E+1	1.457878E-2	1.437409E-2	7.968532E-2	3.164702E-2
10/19/2017  17:42:54.348041	9.719269E-2	8.105642E-3	1.137250E-2	-1.013632E+1	2.477858E-2	6.742135E-3	7.205661E-2	2.910311E-2
10/19/2017  17:42:54.349041	3.872675E-2	2.082484E-2	1.900811E-2	-1.014651E+1	2.987847E-2	2.709402E-2	6.951371E-2	2.147136E-2
10/19/2017  17:42:54.350041	-3.499119E-2	1.064948E-2	2.409852E-2	-1.014651E+1	1.712873E-2	4.198150E-3	7.205661E-2	3.164702E-2
10/19/2017  17:42:54.351041	-7.312115E-2	-2.069720E-3	8.827299E-3	-1.013378E+1	1.457878E-2	1.183011E-2	7.205661E-2	3.419094E-2
10/19/2017  17:42:54.352041	1.226127E-1	1.319332E-2	1.137250E-2	-1.013378E+1	2.987847E-2	1.946206E-2	6.951371E-2	2.910311E-2
10/19/2017  17:42:54.353041	1.327807E-1	1.573716E-2	2.918892E-2	-1.014396E+1	2.477858E-2	3.218199E-2	7.205661E-2	3.164702E-2
10/19/2017  17:42:54.354041	2.929265E-1	1.828100E-2	2.155331E-2	-1.013632E+1	1.712873E-2	2.200605E-2	7.714242E-2	2.910311E-2
10/19/2017  17:42:54.355041	1.528337E+0	5.561801E-3	1.646291E-2	-1.013123E+1	2.477858E-2	1.691808E-2	7.205661E-2	2.910311E-2
10/19/2017  17:42:54.356041	2.130791E+0	1.064948E-2	1.137250E-2	-1.013632E+1	2.477858E-2	2.455003E-2	6.951371E-2	3.164702E-2
10/19/2017  17:42:54.357041	6.843942E-1	2.336868E-2	2.155331E-2	-1.013887E+1	2.477858E-2	4.490191E-2	7.459952E-2	3.164702E-2
10/19/2017  17:42:54.358041	-6.857426E-1	3.100021E-2	1.900811E-2	-1.013632E+1	1.457878E-2	2.200605E-2	6.951371E-2	3.164702E-2
10/19/2017  17:42:54.359041	-1.473762E+0	1.064948E-2	1.900811E-2	-1.013887E+1	1.967868E-2	4.198150E-3	7.714242E-2	3.419094E-2
10/19/2017  17:42:54.360041	-1.171264E+0	8.105642E-3	1.900811E-2	-1.013378E+1	1.712873E-2	1.946206E-2	6.951371E-2	2.910311E-2
10/19/2017  17:42:54.361041	-8.814764E-1	1.573716E-2	2.155331E-2	-1.013887E+1	1.457878E-2	2.200605E-2	8.477112E-2	3.673486E-2
10/19/2017  17:42:54.362041	-2.154730E-1	1.319332E-2	1.646291E-2	-1.013123E+1	3.497837E-2	1.437409E-2	7.968532E-2	4.182269E-2
10/19/2017  17:42:54.363041	2.242926E-1	1.828100E-2	1.646291E-2	-1.013632E+1	2.477858E-2	2.455003E-2	6.697081E-2	2.655919E-2
10/19/2017  17:42:54.364041	5.445843E-1	1.319332E-2	2.155331E-2	-1.014905E+1	6.928941E-3	2.455003E-2	6.951371E-2	1.638352E-2
10/19/2017  17:42:54.365041	1.327807E-1	1.064948E-2	1.900811E-2	-1.012614E+1	1.457878E-2	1.437409E-2	7.968532E-2	3.673486E-2
								
10/19/2017  17:42:54.366041	-1.061671E-1	1.064948E-2	2.155331E-2	-1.014142E+1	2.222863E-2	2.200605E-2	7.714242E-2	4.182269E-2
10/19/2017  17:42:54.367041	-1.417551E-1	1.828100E-2	2.664372E-2	-1.013887E+1	2.222863E-2	3.218199E-2	7.205661E-2	2.655919E-2
10/19/2017  17:42:54.368041	-2.103890E-1	1.064948E-2	1.646291E-2	-1.013887E+1	1.202884E-2	1.946206E-2	7.968532E-2	3.164702E-2
10/19/2017  17:42:54.369041	1.839076E-2	1.064948E-2	1.646291E-2	-1.014905E+1	2.222863E-2	6.742135E-3	6.697081E-2	3.164702E-2
10/19/2017  17:42:54.370041	-1.442971E-1	8.105642E-3	1.137250E-2	-1.014396E+1	2.732853E-2	2.200605E-2	6.697081E-2	3.419094E-2
10/19/2017  17:42:54.371041	-2.612290E-1	2.082484E-2	1.900811E-2	-1.014651E+1	2.222863E-2	2.963800E-2	8.222822E-2	3.164702E-2
10/19/2017  17:42:54.372041	-2.866490E-1	1.064948E-2	2.918892E-2	-1.014142E+1	1.967868E-2	2.200605E-2	7.459952E-2	3.419094E-2
10/19/2017  17:42:54.373041	-7.137046E-1	5.561801E-3	1.900811E-2	-1.013123E+1	1.967868E-2	1.437409E-2	6.951371E-2	4.182269E-2
10/19/2017  17:42:54.374041	-1.712710E+0	1.319332E-2	8.827299E-3	-1.013378E+1	1.967868E-2	2.455003E-2	7.205661E-2	2.910311E-2
10/19/2017  17:42:54.375041	-1.461052E+0	3.100021E-2	2.664372E-2	-1.014905E+1	1.457878E-2	2.963800E-2	8.222822E-2	2.655919E-2
10/19/2017  17:42:54.376041	-7.823385E-1	8.105642E-3	2.664372E-2	-1.013378E+1	1.457878E-2	1.437409E-2	7.714242E-2	4.436661E-2
10/19/2017  17:42:54.377041	9.157160E-1	8.105642E-3	1.137250E-2	-1.013887E+1	1.967868E-2	2.200605E-2	6.951371E-2	2.655919E-2
10/19/2017  17:42:54.378041	1.230924E+0	2.082484E-2	1.391770E-2	-1.014905E+1	1.712873E-2	1.437409E-2	7.459952E-2	2.655919E-2
10/19/2017  17:42:54.379041	9.513039E-1	3.017961E-3	1.646291E-2	-1.014905E+1	2.732853E-2	1.946206E-2	7.459952E-2	2.655919E-2
10/19/2017  17:42:54.380041	1.144496E+0	8.105642E-3	1.900811E-2	-1.013887E+1	2.987847E-2	1.946206E-2	6.951371E-2	3.927877E-2
10/19/2017  17:42:54.381041	4.276524E-1	1.573716E-2	1.646291E-2	-1.014651E+1	2.222863E-2	2.709402E-2	7.968532E-2	2.910311E-2
10/19/2017  17:42:54.382041	2.827585E-1	1.319332E-2	1.391770E-2	-1.014142E+1	2.222863E-2	2.200605E-2	7.714242E-2	3.673486E-2
10/19/2017  17:42:54.383041	1.220756E+0	1.319332E-2	1.900811E-2	-1.013378E+1	6.928941E-3	2.200605E-2	6.188501E-2	3.927877E-2
10/19/2017  17:42:54.384041	1.749491E+0	1.828100E-2	1.900811E-2	-1.013378E+1	1.967868E-2	2.963800E-2	7.459952E-2	3.164702E-2
10/19/2017  17:42:54.385041	1.614765E+0	1.064948E-2	1.391770E-2	-1.013632E+1	2.222863E-2	1.946206E-2	7.205661E-2	4.436661E-2
10/19/2017  17:42:54.386041	2.268346E-1	1.319332E-2	1.900811E-2	-1.014905E+1	1.967868E-2	1.691808E-2	7.459952E-2	2.910311E-2
10/19/2017  17:42:54.387041	-7.111626E-1	1.573716E-2	1.646291E-2	-1.014396E+1	1.967868E-2	2.709402E-2	7.205661E-2	1.892744E-2
10/19/2017  17:42:54.388041	-1.061958E+0	1.319332E-2	2.664372E-2	-1.015415E+1	1.712873E-2	1.946206E-2	7.968532E-2	3.164702E-2
10/19/2017  17:42:54.389041	-1.176348E+0	1.064948E-2	1.900811E-2	-1.013632E+1	2.222863E-2	1.691808E-2	7.459952E-2	3.927877E-2
10/19/2017  17:42:54.390041	-1.417551E-1	1.064948E-2	1.646291E-2	-1.016178E+1	2.477858E-2	2.455003E-2	6.442791E-2	2.655919E-2
10/19/2017  17:42:54.391041	3.564765E-1	2.845637E-2	2.155331E-2	-1.014905E+1	9.478889E-3	2.200605E-2	7.714242E-2	3.164702E-2
10/19/2017  17:42:54.392041	8.038681E-1	1.064948E-2	1.900811E-2	-1.013632E+1	2.477858E-2	1.437409E-2	8.477112E-2	3.927877E-2
10/19/2017  17:42:54.393041	7.809901E-1	1.319332E-2	3.173413E-2	-1.013887E+1	2.987847E-2	2.963800E-2	6.951371E-2	3.419094E-2
10/19/2017  17:42:54.394041	-2.663130E-1	8.105642E-3	1.646291E-2	-1.014142E+1	1.712873E-2	2.709402E-2	7.459952E-2	3.164702E-2
10/19/2017  17:42:54.395041	-2.561450E-1	1.319332E-2	2.664372E-2	-1.013632E+1	1.712873E-2	9.286120E-3	7.968532E-2	3.419094E-2
10/19/2017  17:42:54.396041	-2.129310E-1	-4.613560E-3	1.137250E-2	-1.013632E+1	2.477858E-2	1.691808E-2	7.205661E-2	3.164702E-2
10/19/2017  17:42:54.397041	-2.764810E-1	1.828100E-2	2.155331E-2	-1.014651E+1	2.477858E-2	3.981394E-2	7.968532E-2	3.164702E-2
10/19/2017  17:42:54.398041	-2.002210E-1	1.573716E-2	1.900811E-2	-1.013632E+1	1.457878E-2	1.946206E-2	7.968532E-2	2.910311E-2
								
10/19/2017  17:42:54.399041	-4.340848E-1	1.064948E-2	1.646291E-2	-1.013378E+1	1.457878E-2	9.286120E-3	7.459952E-2	2.401527E-2
10/19/2017  17:42:54.400041	-8.077585E-1	1.319332E-2	1.900811E-2	-1.015669E+1	2.222863E-2	2.709402E-2	7.205661E-2	2.910311E-2
10/19/2017  17:42:54.401041	-7.823385E-1	1.319332E-2	2.409852E-2	-1.013887E+1	1.202884E-2	1.946206E-2	7.968532E-2	3.164702E-2
10/19/2017  17:42:54.402041	-1.973920E-2	1.064948E-2	1.900811E-2	-1.012869E+1	2.732853E-2	1.691808E-2	6.951371E-2	4.436661E-2
10/19/2017  17:42:54.403041	5.776303E-1	1.573716E-2	1.646291E-2	-1.014142E+1	2.222863E-2	2.455003E-2	7.205661E-2	2.401527E-2
10/19/2017  17:42:54.404041	7.962421E-1	1.064948E-2	2.155331E-2	-1.013887E+1	1.457878E-2	1.946206E-2	7.459952E-2	2.147136E-2
10/19/2017  17:42:54.405041	7.937001E-1	5.561801E-3	1.391770E-2	-1.013378E+1	2.222863E-2	1.183011E-2	7.205661E-2	3.164702E-2
10/19/2017  17:42:54.406041	1.075862E+0	1.064948E-2	1.391770E-2	-1.013378E+1	2.222863E-2	1.946206E-2	7.459952E-2	2.910311E-2
10/19/2017  17:42:54.407041	2.853005E-1	1.319332E-2	2.918892E-2	-1.014142E+1	1.457878E-2	1.946206E-2	7.459952E-2	3.164702E-2
10/19/2017  17:42:54.408041	-3.499119E-2	4.741205E-4	1.391770E-2	-1.013632E+1	1.712873E-2	1.183011E-2	6.697081E-2	2.401527E-2
10/19/2017  17:42:54.409041	-2.228120E-2	1.319332E-2	1.137250E-2	-1.012359E+1	2.732853E-2	6.742135E-3	6.442791E-2	2.910311E-2
10/19/2017  17:42:54.410041	1.839076E-2	1.573716E-2	2.155331E-2	-1.014142E+1	1.712873E-2	2.200605E-2	7.459952E-2	3.164702E-2
10/19/2017  17:42:54.411041	2.497126E-1	1.064948E-2	2.155331E-2	-1.013123E+1	1.967868E-2	2.455003E-2	7.968532E-2	3.673486E-2
10/19/2017  17:42:54.412041	-1.595491E-1	1.064948E-2	1.137250E-2	-1.013887E+1	2.987847E-2	1.946206E-2	6.951371E-2	2.147136E-2
10/19/2017  17:42:54.413041	-8.001325E-1	1.828100E-2	2.155331E-2	-1.013632E+1	1.202884E-2	1.946206E-2	7.459952E-2	3.164702E-2
10/19/2017  17:42:54.414041	-1.280570E+0	5.561801E-3	2.155331E-2	-1.012869E+1	1.967868E-2	2.200605E-2	6.951371E-2	3.419094E-2
10/19/2017  17:42:54.415041	-1.117882E+0	1.573716E-2	1.646291E-2	-1.014142E+1	2.477858E-2	2.709402E-2	6.697081E-2	2.401527E-2
10/19/2017  17:42:54.416041	1.398696E+0	1.319332E-2	8.827299E-3	-1.013632E+1	1.712873E-2	6.742135E-3	7.968532E-2	3.164702E-2
10/19/2017  17:42:54.417041	1.210588E+0	-2.069720E-3	1.900811E-2	-1.013887E+1	1.967868E-2	1.691808E-2	6.951371E-2	3.927877E-2
10/19/2017  17:42:54.418041	3.208885E-1	2.082484E-2	1.391770E-2	-1.013632E+1	2.732853E-2	4.235793E-2	6.951371E-2	2.401527E-2
10/19/2017  17:42:54.419041	5.801723E-1	1.573716E-2	2.409852E-2	-1.015924E+1	2.222863E-2	2.200605E-2	8.222822E-2	3.164702E-2
10/19/2017  17:42:54.420041	6.945622E-1	5.561801E-3	1.900811E-2	-1.013123E+1	1.967868E-2	1.437409E-2	6.951371E-2	2.910311E-2
10/19/2017  17:42:54.421041	2.141246E-1	1.064948E-2	1.137250E-2	-1.012869E+1	3.242842E-2	2.963800E-2	6.442791E-2	2.401527E-2
10/19/2017  17:42:54.422041	-5.967727E-1	1.828100E-2	2.664372E-2	-1.014651E+1	2.222863E-2	2.709402E-2	6.951371E-2	3.164702E-2
10/19/2017  17:42:54.423041	3.488505E-1	8.105642E-3	1.646291E-2	-1.012614E+1	3.497837E-2	1.183011E-2	7.459952E-2	4.182269E-2
10/19/2017  17:42:54.424041	1.144496E+0	1.573716E-2	1.900811E-2	-1.012869E+1	2.477858E-2	2.963800E-2	6.951371E-2	2.401527E-2
10/19/2017  17:42:54.425041	2.547966E-1	1.064948E-2	2.409852E-2	-1.013123E+1	1.829045E-3	1.946206E-2	8.222822E-2	2.147136E-2
10/19/2017  17:42:54.426041	-7.035366E-1	8.105642E-3	1.137250E-2	-1.012614E+1	2.222863E-2	2.200605E-2	7.205661E-2	3.164702E-2
10/19/2017  17:42:54.427041	-3.857869E-1	1.064948E-2	1.646291E-2	-1.013378E+1	2.732853E-2	2.709402E-2	6.951371E-2	4.182269E-2
10/19/2017  17:42:54.428041	-3.244919E-2	2.082484E-2	3.173413E-2	-1.014651E+1	2.222863E-2	2.963800E-2	7.968532E-2	2.655919E-2
10/19/2017  17:42:54.429041	1.582006E-1	1.828100E-2	1.646291E-2	-1.013632E+1	1.712873E-2	2.455003E-2	6.951371E-2	3.419094E-2
10/19/2017  17:42:54.430041	1.912466E-1	1.064948E-2	1.137250E-2	-1.014905E+1	2.987847E-2	9.286120E-3	5.679920E-2	2.655919E-2
10/19/2017  17:42:54.431041	3.920644E-1	1.828100E-2	2.409852E-2	-1.014396E+1	2.477858E-2	2.963800E-2	7.205661E-2	2.401527E-2
								
10/19/2017  17:42:54.432041	4.886603E-1	1.319332E-2	2.409852E-2	-1.013632E+1	1.457878E-2	2.200605E-2	8.731403E-2	3.673486E-2
10/19/2017  17:42:54.433041	3.539345E-1	1.828100E-2	1.391770E-2	-1.013378E+1	2.477858E-2	1.183011E-2	7.205661E-2	2.910311E-2
10/19/2017  17:42:54.434041	-1.137931E-1	8.105642E-3	1.900811E-2	-1.013632E+1	2.222863E-2	2.455003E-2	5.934210E-2	2.655919E-2
10/19/2017  17:42:54.435041	-2.027630E-1	1.064948E-2	2.155331E-2	-1.013632E+1	6.928941E-3	1.946206E-2	8.222822E-2	2.655919E-2
10/19/2017  17:42:54.436041	-1.646331E-1	1.319332E-2	2.155331E-2	-1.013123E+1	2.477858E-2	1.691808E-2	7.205661E-2	3.927877E-2
10/19/2017  17:42:54.437041	-2.993589E-1	1.319332E-2	1.391770E-2	-1.013887E+1	2.987847E-2	2.963800E-2	6.951371E-2	2.147136E-2
10/19/2017  17:42:54.438041	-8.328914E-2	3.608789E-2	2.155331E-2	-1.013887E+1	1.457878E-2	2.709402E-2	7.459952E-2	2.910311E-2
10/19/2017  17:42:54.439041	-1.442971E-1	5.561801E-3	1.900811E-2	-1.013632E+1	2.222863E-2	4.198150E-3	7.714242E-2	3.164702E-2
10/19/2017  17:42:54.440041	-3.781609E-1	2.082484E-2	1.391770E-2	-1.014142E+1	3.497837E-2	1.946206E-2	7.205661E-2	3.927877E-2
10/19/2017  17:42:54.441041	3.412245E-1	1.319332E-2	1.646291E-2	-1.014142E+1	1.712873E-2	2.200605E-2	7.205661E-2	3.419094E-2
10/19/2017  17:42:54.442041	5.877982E-1	3.017961E-3	1.646291E-2	-1.011850E+1	1.457878E-2	1.691808E-2	7.459952E-2	3.164702E-2
10/19/2017  17:42:54.443041	7.199821E-1	1.064948E-2	1.137250E-2	-1.013887E+1	2.477858E-2	1.946206E-2	6.697081E-2	2.401527E-2
10/19/2017  17:42:54.444041	3.539345E-1	1.828100E-2	1.646291E-2	-1.014651E+1	2.477858E-2	2.963800E-2	8.222822E-2	1.892744E-2
10/19/2017  17:42:54.445041	-3.374889E-1	5.561801E-3	1.900811E-2	-1.012105E+1	1.457878E-2	1.437409E-2	7.968532E-2	3.673486E-2
10/19/2017  17:42:54.446041	1.175287E-1	1.319332E-2	8.827299E-3	-1.013378E+1	2.987847E-2	1.691808E-2	7.205661E-2	4.182269E-2
10/19/2017  17:42:54.447041	1.632846E-1	1.573716E-2	2.155331E-2	-1.014905E+1	1.967868E-2	2.455003E-2	6.951371E-2	2.147136E-2
10/19/2017  17:42:54.448041	3.564765E-1	1.064948E-2	2.664372E-2	-1.013632E+1	1.457878E-2	2.200605E-2	7.714242E-2	2.401527E-2
10/19/2017  17:42:54.449041	8.702470E-2	8.105642E-3	1.900811E-2	-1.011850E+1	2.222863E-2	1.183011E-2	7.968532E-2	3.419094E-2
10/19/2017  17:42:54.450041	-1.697171E-1	1.064948E-2	1.391770E-2	-1.013887E+1	2.222863E-2	2.200605E-2	7.205661E-2	2.401527E-2
10/19/2017  17:42:54.451041	-6.476126E-1	8.105642E-3	2.155331E-2	-1.013887E+1	2.477858E-2	1.946206E-2	8.477112E-2	3.164702E-2
10/19/2017  17:42:54.452041	-5.179708E-1	2.082484E-2	1.391770E-2	-1.013632E+1	1.712873E-2	1.183011E-2	8.222822E-2	3.164702E-2
10/19/2017  17:42:54.453041	-2.205570E-1	1.573716E-2	1.900811E-2	-1.013887E+1	2.222863E-2	2.455003E-2	6.697081E-2	3.164702E-2
10/19/2017  17:42:54.454041	3.437665E-1	1.319332E-2	3.173413E-2	-1.013123E+1	2.987847E-2	1.691808E-2	7.205661E-2	2.655919E-2
10/19/2017  17:42:54.455041	6.767682E-1	2.336868E-2	2.664372E-2	-1.014651E+1	1.457878E-2	2.709402E-2	7.714242E-2	2.910311E-2
10/19/2017  17:42:54.456041	2.293766E-1	8.105642E-3	2.664372E-2	-1.013378E+1	1.202884E-2	9.286120E-3	7.968532E-2	3.419094E-2
