Parameters: 	Upper Cutoff:  500	Lower Cutoff: 20	Sample Rate (Hz): 1000	Frames Per Second30	Display Window Size (S)400	MVC Window Size (s): 400	Seconds To Acquire MVC: 3	Display Channel: 0
waveform	[0]	[1]	[2]	[3]	[4]	[5]	[6]	[7]
t0	10/19/2017  17:43:56.846485	10/19/2017  17:43:56.846485	10/19/2017  17:43:56.846485	10/19/2017  17:43:56.846485	10/19/2017  17:43:56.846485	10/19/2017  17:43:56.846485	10/19/2017  17:43:56.846485	10/19/2017  17:43:56.846485
delta t	0.001000	0.001000	0.001000	0.001000	0.001000	0.001000	0.001000	0.001000

time	Y[0]	Y[1]	Y[2]	Y[3]	Y[4]	Y[5]	Y[6]	Y[7]
10/19/2017  17:43:56.844543	2.441452E-1	6.422430E-3	6.083674E-3	2.102875E-3	8.441044E-3	6.775643E-3	3.402879E-3	1.124751E-2
10/19/2017  17:43:56.845543	5.491029E-1	3.285427E-4	9.317049E-3	1.794916E-3	2.534105E-3	1.667420E-3	6.469474E-3	8.592282E-3
10/19/2017  17:43:56.846543	1.036328E+0	5.244894E-3	5.806749E-4	6.545327E-4	2.662251E-3	7.668545E-3	6.772561E-3	1.983576E-3
10/19/2017  17:43:56.847543	1.148366E+0	4.288611E-3	1.397016E-3	1.944729E-3	8.443593E-3	7.811795E-3	3.100234E-3	7.917022E-3
10/19/2017  17:43:56.848543	1.738888E-1	5.187193E-3	5.903113E-3	5.896189E-3	1.373757E-3	5.669283E-3	1.812395E-3	3.157264E-3
10/19/2017  17:43:56.849543	1.174846E-2	1.226382E-3	1.089938E-2	4.141386E-3	3.828994E-3	2.615477E-3	3.393911E-3	4.792796E-3
10/19/2017  17:43:56.850543	4.215656E-1	1.016155E-2	3.171979E-3	6.975991E-3	3.118554E-3	8.473284E-3	4.855433E-3	3.882326E-3
10/19/2017  17:43:56.851543	1.787018E-1	1.052672E-3	1.722729E-3	4.323838E-3	4.661040E-3	1.497844E-3	1.378603E-3	9.357359E-4
10/19/2017  17:43:56.852543	2.216758E-1	1.226944E-3	4.845419E-3	3.688254E-3	3.411408E-3	1.468201E-3	1.198057E-2	3.125736E-3
10/19/2017  17:43:56.853543	8.981927E-2	3.673121E-3	8.338393E-3	3.365044E-3	4.135596E-3	1.413398E-3	4.861673E-3	8.906014E-3
10/19/2017  17:43:56.854543	1.005279E+0	5.914313E-3	2.419009E-3	3.912055E-3	1.440447E-3	3.498560E-3	3.852840E-3	8.921364E-3
10/19/2017  17:43:56.855543	2.523540E+0	2.572415E-3	4.044136E-3	1.106973E-2	9.723182E-3	5.932220E-3	3.506524E-3	1.914490E-3
10/19/2017  17:43:56.856543	9.578693E-1	2.104681E-3	4.521461E-3	4.128190E-3	2.086559E-3	1.628940E-3	4.318095E-3	1.188176E-2
10/19/2017  17:43:56.857543	2.296430E+0	3.835101E-3	1.055787E-2	3.292129E-3	8.364912E-3	1.454076E-2	5.452261E-3	3.070380E-4
10/19/2017  17:43:56.858543	3.808796E+0	1.021236E-2	1.508010E-3	3.937166E-4	4.668332E-4	1.788785E-3	4.616540E-4	4.767278E-3
10/19/2017  17:43:56.859543	2.438183E+0	6.049315E-3	7.365310E-4	2.615982E-3	1.847540E-3	1.142612E-3	2.559750E-3	8.688321E-4
10/19/2017  17:43:56.860543	9.886059E-1	4.542267E-3	4.179196E-3	1.057580E-2	9.559127E-3	5.993513E-4	2.506200E-3	2.731002E-3
10/19/2017  17:43:56.861543	3.794384E-1	1.077764E-3	1.059009E-3	7.971484E-3	4.314286E-3	2.008821E-3	4.494598E-4	4.692482E-3
10/19/2017  17:43:56.862543	2.995667E-1	1.382374E-3	1.236525E-3	1.019552E-2	3.308877E-3	3.823765E-3	3.895618E-3	3.128885E-3
10/19/2017  17:43:56.863543	5.244193E-1	7.386087E-3	1.485692E-3	7.007612E-3	2.763093E-4	7.131164E-3	3.424651E-4	6.460484E-3
10/19/2017  17:43:56.864543	5.600340E-1	5.352202E-4	7.693869E-3	6.449108E-3	1.920668E-3	1.613794E-3	8.515968E-3	1.088219E-2
10/19/2017  17:43:56.865543	7.841546E-1	8.800307E-3	3.147707E-3	1.398284E-3	5.242650E-3	1.001250E-2	9.787248E-3	7.767679E-3
10/19/2017  17:43:56.866543	1.166036E+0	2.213293E-3	6.798644E-3	6.009679E-3	2.827545E-3	1.675757E-3	7.474375E-3	1.644837E-2
10/19/2017  17:43:56.867543	1.446164E+0	1.710434E-3	7.347372E-4	6.769626E-3	1.359832E-4	2.911756E-3	3.335343E-3	3.552478E-3
10/19/2017  17:43:56.868543	1.753417E+0	5.602978E-3	3.633884E-3	5.203106E-4	2.069166E-3	4.741966E-3	1.951707E-3	1.996030E-2
10/19/2017  17:43:56.869543	1.082060E+0	2.643448E-3	2.065048E-3	1.973652E-2	3.562813E-3	7.903047E-3	5.119847E-3	5.876634E-3
10/19/2017  17:43:56.870543	7.968425E-2	8.464993E-3	6.117480E-3	6.287821E-3	6.354849E-3	9.767384E-4	2.977141E-3	9.170515E-3
10/19/2017  17:43:56.871543	8.740189E-1	7.176706E-3	6.334561E-3	3.236733E-3	4.554314E-3	5.181852E-3	4.263322E-3	2.528861E-3
10/19/2017  17:43:56.872543	1.188722E+0	9.496465E-3	6.617526E-3	3.341386E-3	9.951174E-3	5.815457E-3	1.524321E-3	6.668288E-3
10/19/2017  17:43:56.873543	7.929199E-1	6.551206E-3	2.711641E-3	2.968618E-3	2.635779E-3	4.928842E-4	3.486882E-3	1.078692E-2
10/19/2017  17:43:56.874543	7.030022E-1	4.874966E-3	4.105486E-3	9.631565E-3	1.554795E-3	5.046604E-3	2.595525E-3	3.450540E-3
10/19/2017  17:43:56.875543	1.985943E+0	5.191860E-3	1.020027E-2	5.417610E-3	1.230734E-2	2.675492E-3	3.992674E-3	1.063608E-2
10/19/2017  17:43:56.876543	1.882798E+0	3.569165E-3	3.733785E-3	1.588839E-5	4.421361E-3	1.025087E-2	4.855865E-4	8.602946E-4
								
10/19/2017  17:43:56.877543	1.008952E+0	1.073097E-2	2.820369E-3	9.116917E-3	3.651760E-3	6.400754E-3	6.401826E-3	2.388679E-3
10/19/2017  17:43:56.878543	9.064193E-1	5.426742E-3	2.275161E-3	2.299099E-3	6.742945E-4	2.247171E-2	2.448690E-3	1.184263E-3
10/19/2017  17:43:56.879543	1.308094E+0	3.483372E-3	1.510230E-3	9.211598E-3	5.802949E-3	8.004830E-3	2.673915E-3	4.100106E-3
10/19/2017  17:43:56.880543	1.221196E+0	2.897591E-4	3.447374E-3	4.523547E-3	6.554063E-4	2.764034E-3	4.542377E-3	5.598807E-3
10/19/2017  17:43:56.881543	9.619959E-1	3.058269E-3	3.942187E-4	5.570661E-3	7.488704E-3	4.290611E-4	7.359995E-3	4.282834E-3
10/19/2017  17:43:56.882543	2.383135E+0	1.503440E-3	3.974943E-3	4.276074E-4	1.280530E-3	5.826983E-4	6.091517E-3	3.137471E-3
10/19/2017  17:43:56.883543	1.399565E+0	1.816543E-3	1.714945E-3	9.075414E-3	7.585931E-3	7.174717E-3	1.338172E-2	2.150084E-3
10/19/2017  17:43:56.884543	7.575317E-1	6.343061E-3	1.223114E-2	1.102778E-2	3.118693E-3	8.151975E-4	7.873928E-3	1.308360E-3
10/19/2017  17:43:56.885543	5.741498E-1	3.594513E-3	2.366003E-3	7.698024E-3	4.596353E-3	5.959384E-3	3.065688E-3	8.033481E-3
10/19/2017  17:43:56.886543	1.164526E+0	2.407262E-3	6.321315E-3	1.887237E-2	7.802881E-3	4.558059E-3	6.484669E-3	1.468336E-3
10/19/2017  17:43:56.887543	1.887431E+0	8.820257E-3	1.903003E-3	3.872150E-3	5.391503E-3	1.142915E-3	8.634775E-3	5.317730E-3
10/19/2017  17:43:56.888543	9.902001E-1	1.020082E-4	9.089468E-4	1.537231E-3	2.661064E-3	7.840756E-3	2.768198E-4	9.428206E-3
10/19/2017  17:43:56.889543	1.540948E+0	6.771502E-3	7.419334E-4	3.269651E-3	8.337330E-3	1.179625E-3	6.679097E-3	1.811013E-4
10/19/2017  17:43:56.890543	3.458873E-1	2.612272E-3	5.884211E-3	4.235115E-3	5.290972E-3	5.494946E-3	1.980373E-3	4.351815E-3
10/19/2017  17:43:56.891543	3.177271E+0	1.349126E-2	9.070482E-3	7.824504E-3	4.072478E-3	2.422688E-3	5.993555E-3	5.517506E-3
10/19/2017  17:43:56.892543	1.980976E+0	2.897952E-3	6.475371E-3	1.155944E-3	7.798337E-3	1.521413E-3	2.145571E-3	1.555416E-3
10/19/2017  17:43:56.893543	2.100353E-1	1.135519E-2	4.287867E-3	9.766244E-3	5.669451E-3	1.217227E-2	2.887884E-3	3.565378E-3
10/19/2017  17:43:56.894543	8.554003E-1	4.892515E-4	6.169274E-3	6.069634E-3	6.475860E-3	1.127669E-4	6.560697E-3	6.486646E-4
10/19/2017  17:43:56.895543	6.045183E-1	4.702239E-3	2.661655E-3	2.062916E-3	1.896396E-3	1.113691E-2	2.056192E-3	3.611422E-3
10/19/2017  17:43:56.896543	2.599455E-3	7.534578E-3	2.118115E-3	3.102569E-3	3.521364E-3	8.619437E-4	8.190760E-3	2.157118E-3
10/19/2017  17:43:56.897543	9.235528E-1	8.050664E-3	5.362808E-3	2.233100E-4	2.366473E-3	1.595622E-2	7.108688E-4	2.382358E-3
10/19/2017  17:43:56.898543	2.335788E-1	1.675272E-2	1.884560E-3	2.478894E-3	5.076781E-3	4.146062E-3	1.530697E-3	1.181390E-3
10/19/2017  17:43:56.899543	1.822402E+0	1.539986E-3	5.020280E-3	3.184516E-4	7.099758E-3	1.199667E-2	5.216185E-3	1.948300E-3
10/19/2017  17:43:56.900543	1.787745E+0	1.256287E-2	3.208385E-3	6.331247E-3	8.270746E-3	6.635663E-3	3.283192E-3	1.522712E-4
10/19/2017  17:43:56.901543	1.165579E-1	1.607211E-3	6.841447E-3	8.618530E-3	3.820220E-3	3.997816E-3	4.784083E-3	4.868437E-3
10/19/2017  17:43:56.902543	1.674859E+0	5.226350E-3	4.817361E-3	4.554836E-4	3.904692E-3	6.815490E-4	1.792856E-3	2.491230E-3
10/19/2017  17:43:56.903543	8.490383E-1	5.383354E-3	7.692110E-3	6.984831E-3	6.517116E-4	8.218344E-3	4.044883E-4	9.630031E-3
10/19/2017  17:43:56.904543	1.218153E+0	5.619074E-3	9.029245E-4	1.023510E-2	8.200572E-3	3.031100E-3	1.101446E-2	6.688648E-4
10/19/2017  17:43:56.905543	1.428271E+0	1.120261E-2	5.923230E-3	1.608235E-3	7.466769E-3	8.855376E-3	6.749428E-4	3.655260E-3
10/19/2017  17:43:56.906543	3.488727E+0	3.563778E-4	4.091477E-3	7.117344E-4	5.452654E-3	8.945810E-3	2.595634E-3	4.197138E-3
10/19/2017  17:43:56.907543	2.021625E+0	4.323140E-3	3.911356E-3	8.478861E-3	5.714336E-4	4.549419E-3	4.533757E-4	1.027152E-3
10/19/2017  17:43:56.908543	8.125952E-1	2.631031E-3	3.033178E-3	2.564267E-3	4.889444E-3	1.112185E-3	4.716374E-4	9.481250E-3
10/19/2017  17:43:56.909543	3.072762E-1	7.390674E-3	4.213203E-3	4.721948E-3	7.376037E-3	7.399801E-4	4.623646E-4	2.169328E-3
								
10/19/2017  17:43:56.910543	1.885336E+0	2.960991E-3	4.911016E-3	5.422545E-3	1.441983E-3	8.205627E-3	4.311578E-4	2.441024E-3
10/19/2017  17:43:56.911543	3.022582E+0	1.612553E-3	7.796498E-3	9.474379E-3	5.574648E-3	3.469581E-3	1.764376E-2	8.836250E-4
10/19/2017  17:43:56.912543	2.169363E+0	1.026640E-2	7.970247E-3	8.987131E-3	2.524980E-3	4.449723E-3	3.186083E-3	1.140887E-3
10/19/2017  17:43:56.913543	1.535815E+0	3.261861E-3	3.081611E-3	1.726889E-3	4.062910E-4	1.345299E-3	9.487632E-3	3.493648E-3
10/19/2017  17:43:56.914543	1.713622E+0	2.212821E-4	8.762122E-3	1.460238E-3	6.821458E-3	3.088821E-3	7.009778E-4	2.922578E-3
10/19/2017  17:43:56.915543	1.006476E+0	2.323333E-3	6.986789E-3	5.890406E-4	4.038513E-3	6.837721E-3	3.011233E-3	6.736202E-3
10/19/2017  17:43:56.916543	6.050231E-1	6.097734E-4	3.587676E-3	4.486493E-3	1.169863E-2	2.895755E-3	6.724665E-3	4.877487E-3
10/19/2017  17:43:56.917543	7.161839E-1	3.753163E-3	4.077501E-3	3.650409E-3	4.966633E-3	6.553682E-3	6.003745E-3	9.638703E-3
10/19/2017  17:43:56.918543	7.843126E-1	4.525580E-3	5.084272E-3	7.900639E-3	8.104417E-3	8.534354E-3	1.937072E-3	2.134599E-4
10/19/2017  17:43:56.919543	8.335611E-1	1.245210E-2	5.248391E-3	1.225726E-2	1.165029E-2	1.736655E-3	3.263967E-3	4.452534E-3
10/19/2017  17:43:56.920543	9.615612E-1	4.721400E-3	2.643541E-3	4.625154E-3	4.954977E-3	7.577104E-3	4.725625E-3	1.152682E-3
10/19/2017  17:43:56.921543	3.738376E-1	3.211494E-3	1.702270E-3	3.220952E-3	8.044706E-3	1.163916E-3	3.410918E-3	8.914713E-4
10/19/2017  17:43:56.922543	1.008443E+0	2.021787E-3	9.884886E-3	2.025358E-3	7.420260E-3	9.300635E-4	2.297030E-3	6.668191E-4
10/19/2017  17:43:56.923543	2.478699E+0	5.704389E-3	8.125131E-3	1.139388E-3	9.176744E-4	5.758938E-3	1.373805E-2	1.683302E-3
10/19/2017  17:43:56.924543	1.048133E+0	9.182493E-3	3.427917E-3	7.741352E-3	5.974251E-3	9.124839E-3	7.390473E-3	5.338602E-3
10/19/2017  17:43:56.925543	3.788946E-1	4.370780E-3	6.629679E-3	7.835865E-4	1.498239E-2	4.897582E-6	8.353880E-3	1.144168E-2
10/19/2017  17:43:56.926543	1.627310E-1	7.956780E-3	6.430227E-4	1.118035E-2	7.400810E-3	4.195398E-3	6.406422E-3	7.538347E-4
10/19/2017  17:43:56.927543	1.370779E+0	5.094993E-3	3.676976E-3	1.342434E-3	3.776291E-3	2.679123E-3	1.746860E-3	3.055247E-3
10/19/2017  17:43:56.928543	1.152832E+0	5.185716E-3	2.046869E-3	1.733251E-3	1.118454E-3	7.415152E-4	3.257107E-3	2.791619E-4
10/19/2017  17:43:56.929543	1.207818E+0	5.891634E-3	4.692723E-3	6.329533E-3	6.274624E-3	1.065679E-3	2.390208E-4	2.602275E-3
10/19/2017  17:43:56.930543	8.820946E-1	6.827243E-3	1.507105E-3	9.407016E-3	5.288367E-4	8.558449E-4	4.108707E-3	6.325161E-3
10/19/2017  17:43:56.931543	3.031280E-1	2.724331E-3	1.458650E-2	4.736142E-3	5.046093E-3	1.512255E-2	3.739564E-3	4.244396E-3
10/19/2017  17:43:56.932543	2.793585E-1	2.529774E-3	4.728924E-3	3.169564E-3	2.739772E-3	2.105128E-3	1.567892E-3	1.278012E-3
10/19/2017  17:43:56.933543	2.321482E-1	6.214187E-3	1.410793E-2	4.404900E-3	1.721966E-3	5.781177E-3	3.310555E-3	3.028137E-3
10/19/2017  17:43:56.934543	5.074551E-1	4.369935E-3	5.734063E-3	2.925443E-3	8.939354E-4	6.960249E-3	1.903606E-4	8.820513E-3
10/19/2017  17:43:56.935543	6.919967E-1	3.160567E-3	3.709297E-4	4.568633E-4	2.344376E-4	3.602906E-3	6.395870E-3	4.632163E-3
10/19/2017  17:43:56.936543	1.236495E+0	1.724203E-2	9.489812E-3	5.059901E-3	1.542145E-2	2.405132E-3	8.571571E-3	1.155497E-3
10/19/2017  17:43:56.937543	1.136067E-1	1.232133E-2	5.205641E-4	4.818970E-4	1.293174E-5	1.801029E-2	4.735017E-4	7.468258E-4
10/19/2017  17:43:56.938543	1.314047E+0	1.584326E-2	2.673819E-3	1.067873E-2	4.634031E-3	4.832925E-3	1.639640E-3	4.021253E-4
10/19/2017  17:43:56.939543	6.527739E-1	3.921375E-3	1.929555E-3	5.554497E-3	8.511035E-4	1.247198E-2	3.418588E-3	8.518019E-3
10/19/2017  17:43:56.940543	1.397196E+0	3.598251E-3	8.781513E-4	1.269466E-2	2.567108E-3	4.172859E-3	1.698254E-3	1.600293E-3
10/19/2017  17:43:56.941543	1.661557E+0	4.119756E-3	7.274599E-4	6.519834E-3	9.336462E-3	1.299653E-3	7.668153E-3	9.948971E-3
10/19/2017  17:43:56.942543	1.044345E+0	5.185900E-3	1.018604E-2	7.116834E-3	6.295534E-3	7.340309E-3	3.187420E-3	1.617205E-3
								
10/19/2017  17:43:56.943543	4.686174E-1	5.080839E-3	4.069556E-3	5.746609E-3	6.947117E-5	1.025025E-2	2.220981E-3	5.569198E-3
10/19/2017  17:43:56.944543	1.701895E-1	2.865632E-3	3.413425E-3	3.681868E-4	1.550254E-2	8.692750E-4	2.909048E-3	4.790984E-3
10/19/2017  17:43:56.945543	1.277676E-1	1.980257E-3	7.961267E-3	6.045422E-3	8.713283E-3	5.937757E-3	4.303065E-3	1.237602E-3
10/19/2017  17:43:56.946543	1.384715E+0	5.233299E-3	5.875918E-3	3.890262E-3	4.531014E-3	4.540947E-3	3.668030E-3	5.707447E-3
10/19/2017  17:43:56.947543	2.924626E+0	6.028505E-4	2.683070E-3	1.731824E-2	1.291030E-3	1.075129E-3	1.527630E-3	6.818658E-3
10/19/2017  17:43:56.948543	1.927536E+0	4.674867E-4	4.001201E-3	2.762663E-3	9.761453E-3	2.918575E-3	3.022051E-3	1.038467E-2
10/19/2017  17:43:56.949543	1.673735E-1	1.804069E-3	6.549153E-3	8.476532E-3	1.910638E-3	4.111442E-3	6.087562E-3	3.610008E-3
10/19/2017  17:43:56.950543	2.545363E+0	1.391978E-2	1.390235E-2	1.155968E-2	1.603147E-3	3.868635E-3	4.981478E-3	5.850926E-4
10/19/2017  17:43:56.951543	3.609141E+0	3.476218E-3	3.023249E-3	1.683362E-3	5.157343E-3	1.592863E-2	8.461698E-3	4.863847E-3
10/19/2017  17:43:56.952543	3.231643E+0	1.156524E-2	1.515425E-2	9.373420E-4	3.228285E-3	4.208251E-3	6.290617E-3	1.241419E-3
10/19/2017  17:43:56.953543	4.299009E-1	1.119186E-2	2.727601E-3	1.850014E-3	2.666438E-3	5.615626E-3	2.039398E-3	1.441515E-3
10/19/2017  17:43:56.954543	7.358443E-1	3.165370E-3	6.906596E-3	3.819184E-3	6.495212E-3	1.288187E-2	6.719143E-4	5.483791E-3
10/19/2017  17:43:56.955543	2.782835E+0	4.749666E-3	5.467817E-3	3.542103E-3	2.471530E-3	4.068474E-3	4.736550E-3	2.646441E-3
10/19/2017  17:43:56.956543	1.889168E+0	2.951053E-3	3.201613E-3	8.640843E-3	2.713502E-3	3.317178E-3	1.212489E-3	1.905128E-3
10/19/2017  17:43:56.957543	3.353052E-1	1.877743E-3	5.034891E-3	7.593791E-3	1.574495E-4	1.096928E-2	3.319017E-3	5.198989E-3
10/19/2017  17:43:56.958543	2.467215E+0	1.156917E-3	3.128038E-4	4.756172E-3	4.373965E-3	1.377717E-2	2.554372E-3	5.758155E-3
10/19/2017  17:43:56.959543	2.130571E+0	1.841665E-2	2.363903E-3	6.081889E-3	7.004625E-4	7.255080E-4	4.061333E-3	7.078750E-3
10/19/2017  17:43:56.960543	1.890846E+0	4.071566E-3	1.063824E-4	7.193820E-3	2.006279E-3	8.752411E-3	2.805271E-3	3.408387E-3
10/19/2017  17:43:56.961543	1.130384E+0	4.360805E-3	1.853426E-3	7.415137E-3	6.926461E-3	2.255322E-3	3.975157E-4	6.481234E-3
10/19/2017  17:43:56.962543	1.455528E+0	3.835829E-3	1.212261E-2	8.373316E-3	1.080126E-2	1.800513E-3	3.769744E-3	2.520028E-3
10/19/2017  17:43:56.963543	9.755322E-1	9.697985E-4	4.181521E-5	8.597084E-3	5.024342E-3	7.865992E-3	2.255116E-3	9.092204E-3
10/19/2017  17:43:56.964543	2.188486E-1	8.627175E-3	3.666740E-5	1.539259E-2	1.018783E-3	3.260240E-3	1.192548E-2	1.102864E-2
10/19/2017  17:43:56.965543	5.107298E-2	4.395183E-3	6.368274E-3	4.786170E-3	1.276698E-2	3.616592E-4	3.169804E-5	8.950398E-4
10/19/2017  17:43:56.966543	7.274760E-1	3.150497E-3	6.623909E-3	2.129765E-2	4.809205E-3	8.189823E-3	2.064829E-3	5.145117E-3
10/19/2017  17:43:56.967543	9.797061E-1	8.846305E-3	7.070497E-3	8.849539E-3	5.494559E-3	5.502994E-3	7.307265E-3	4.970534E-3
10/19/2017  17:43:56.968543	3.226809E-1	1.856247E-4	8.042864E-3	2.108032E-3	6.785183E-3	6.528641E-3	7.596761E-4	9.378549E-4
10/19/2017  17:43:56.969543	6.636709E-1	8.852736E-3	7.369907E-3	2.820685E-3	2.301246E-3	1.027077E-2	2.935612E-4	8.528649E-4
10/19/2017  17:43:56.970543	1.019044E+0	2.585541E-3	8.622011E-4	2.425819E-3	3.249446E-3	6.743879E-3	8.722727E-3	7.709036E-4
10/19/2017  17:43:56.971543	2.304179E-1	1.287794E-2	2.609471E-3	4.681824E-3	6.593692E-4	1.129429E-2	2.427905E-3	6.919942E-4
10/19/2017  17:43:56.972543	3.920087E-1	4.062349E-3	2.746049E-3	3.068991E-3	1.188070E-3	2.067538E-3	4.505371E-4	4.933105E-3
10/19/2017  17:43:56.973543	1.200345E+0	1.000001E-3	1.510467E-2	1.124774E-2	6.241471E-3	7.442467E-4	6.117038E-3	9.507281E-3
10/19/2017  17:43:56.974543	8.100814E-1	3.380857E-3	7.334584E-3	1.027569E-2	3.800127E-3	1.325709E-2	1.750905E-2	2.188169E-3
10/19/2017  17:43:56.975543	3.810960E-1	8.764284E-3	2.105594E-2	3.865036E-3	2.164154E-3	3.338905E-3	2.965349E-3	7.535831E-3
								
10/19/2017  17:43:56.976543	8.999845E-1	2.295563E-3	4.583451E-3	9.570427E-3	8.974893E-5	2.521748E-3	4.656386E-3	1.266499E-3
10/19/2017  17:43:56.977543	1.834134E-1	6.509630E-4	8.884545E-4	1.888952E-3	2.658120E-3	1.330512E-2	3.519770E-3	1.138453E-3
10/19/2017  17:43:56.978543	1.768986E-1	1.786657E-2	2.598306E-3	7.244693E-4	2.218139E-4	3.347709E-4	2.539603E-3	3.665726E-3
10/19/2017  17:43:56.979543	5.287790E-1	5.119912E-3	9.285882E-3	3.895906E-4	9.304690E-3	4.741341E-3	3.860904E-3	5.992476E-3
10/19/2017  17:43:56.980543	5.562262E-1	1.285511E-2	4.154992E-3	1.090465E-2	2.795818E-4	1.036793E-2	4.024741E-3	2.876670E-4
10/19/2017  17:43:56.981543	1.491990E+0	1.574431E-3	9.306298E-3	5.841067E-3	4.573582E-3	3.147906E-3	9.167475E-4	2.657404E-3
10/19/2017  17:43:56.982543	1.032732E+0	5.422217E-3	2.575545E-3	1.337542E-2	9.879743E-3	2.089078E-3	3.500008E-3	6.414072E-3
10/19/2017  17:43:56.983543	2.290722E-2	1.460096E-3	1.882567E-3	9.312424E-4	6.115719E-3	9.753487E-4	2.176692E-3	1.974179E-3
10/19/2017  17:43:56.984543	8.235594E-1	7.958306E-3	1.537890E-3	2.726067E-3	3.292616E-5	7.602706E-3	1.186250E-2	2.853335E-3
10/19/2017  17:43:56.985543	6.690318E-1	5.042120E-3	1.111872E-2	4.760683E-3	6.534747E-3	8.227248E-3	4.184874E-3	4.019549E-3
10/19/2017  17:43:56.986543	1.738131E-1	1.215668E-3	6.287591E-3	8.593055E-4	2.008218E-3	4.209559E-3	3.706855E-3	1.478794E-2
10/19/2017  17:43:56.987543	4.874653E-1	8.087867E-3	1.647793E-2	1.998529E-2	3.738027E-3	9.855682E-4	4.919666E-3	1.761178E-3
10/19/2017  17:43:56.988543	1.911084E-1	6.915860E-4	6.370831E-4	3.934407E-3	1.693406E-3	1.839304E-3	3.065054E-3	1.203735E-2
10/19/2017  17:43:56.989543	1.641757E-1	2.677392E-3	6.533346E-3	1.242084E-2	3.108474E-3	4.843256E-4	6.424929E-3	1.992649E-3
10/19/2017  17:43:56.990543	7.391218E-1	4.642296E-3	9.249337E-3	7.337134E-4	6.398236E-3	6.408863E-3	4.318230E-3	9.678486E-3
10/19/2017  17:43:56.991543	1.231969E-1	5.369690E-3	6.519063E-3	9.543637E-4	4.555928E-3	4.790260E-3	1.749821E-3	1.774161E-3
10/19/2017  17:43:56.992543	2.512880E+0	3.022347E-3	6.152564E-3	5.414405E-3	5.795863E-3	2.518192E-4	3.925630E-3	1.305194E-3
10/19/2017  17:43:56.993543	1.566674E+0	6.140920E-3	1.566955E-4	1.907462E-3	3.535744E-5	5.059036E-4	1.181880E-2	5.573191E-3
10/19/2017  17:43:56.994543	9.299165E-2	3.770297E-3	1.121849E-2	3.610338E-3	4.210264E-3	1.088773E-3	4.012797E-3	4.843954E-3
10/19/2017  17:43:56.995543	1.666258E-1	1.329481E-2	7.435557E-4	3.320561E-4	3.827236E-3	1.015159E-2	6.142663E-3	8.240438E-4
10/19/2017  17:43:56.996543	1.022820E+0	3.444347E-3	2.838844E-3	2.071488E-3	5.144693E-3	9.770073E-3	2.598028E-4	4.869763E-3
10/19/2017  17:43:56.997543	3.259693E+0	2.693018E-3	4.433537E-3	5.876886E-4	1.544884E-3	1.754276E-3	3.966095E-3	5.401603E-3
10/19/2017  17:43:56.998543	3.511681E+0	6.355139E-3	2.996468E-3	6.771429E-3	1.046352E-3	1.364142E-3	3.992492E-3	1.039841E-2
10/19/2017  17:43:56.999543	1.289840E+0	4.261160E-3	2.501055E-3	6.980452E-5	6.336099E-4	1.043711E-3	3.098220E-3	1.025130E-2
10/19/2017  17:43:57.000543	5.691784E-1	3.090983E-3	2.032198E-3	4.817233E-3	2.460757E-3	3.532452E-3	1.985071E-3	9.317051E-4
10/19/2017  17:43:57.001543	1.092336E+0	4.367731E-3	1.598440E-3	6.005395E-3	6.819510E-4	4.479491E-3	7.408420E-3	7.974625E-3
10/19/2017  17:43:57.002543	5.345606E-1	3.417630E-3	1.415843E-2	2.026491E-3	9.426889E-3	5.883602E-3	5.205146E-3	7.584543E-3
10/19/2017  17:43:57.003543	8.414294E-1	2.397070E-3	3.412262E-3	9.459556E-4	6.636816E-3	2.327543E-3	9.589111E-3	3.125044E-3
10/19/2017  17:43:57.004543	6.286406E-1	7.087004E-3	9.934654E-3	7.734016E-3	2.125275E-3	4.626261E-3	8.234555E-3	4.203314E-3
10/19/2017  17:43:57.005543	4.298295E-1	5.841094E-3	6.920854E-3	1.233423E-2	3.439714E-3	7.885135E-3	3.058033E-3	1.898624E-2
10/19/2017  17:43:57.006543	1.214950E+0	1.937841E-3	8.044387E-3	8.315447E-3	7.343435E-3	1.452135E-3	8.914345E-3	4.045688E-3
10/19/2017  17:43:57.007543	1.823901E+0	3.128258E-3	7.888756E-5	9.852669E-4	1.195561E-3	7.550736E-3	4.540999E-3	7.582506E-3
10/19/2017  17:43:57.008543	1.739119E+0	1.628143E-4	7.094495E-3	1.195841E-3	1.106586E-3	1.008471E-2	1.084951E-3	6.025381E-3
								
10/19/2017  17:43:57.009543	1.101347E+0	6.652861E-3	7.456033E-3	1.329478E-3	1.629156E-3	7.543557E-4	7.039579E-4	4.805198E-3
10/19/2017  17:43:57.010543	1.063050E+0	2.369195E-3	4.055955E-3	7.243509E-3	1.374439E-3	1.247450E-2	1.764961E-3	8.053300E-3
10/19/2017  17:43:57.011543	1.801874E-1	1.296627E-3	7.896735E-3	6.405102E-3	5.355206E-3	4.501468E-3	1.163934E-2	7.243241E-3
10/19/2017  17:43:57.012543	2.081893E-1	1.469234E-2	8.172990E-3	9.506368E-3	7.370901E-3	5.767120E-3	9.476341E-3	1.503933E-3
10/19/2017  17:43:57.013543	3.243068E+0	4.668444E-3	1.515637E-3	1.642712E-3	3.224788E-3	4.356692E-3	5.399260E-4	7.745561E-3
10/19/2017  17:43:57.014543	1.372274E+0	3.284477E-3	7.691024E-3	9.845237E-3	4.247059E-3	5.843212E-3	3.751207E-3	1.074326E-3
10/19/2017  17:43:57.015543	3.954773E-1	4.354627E-3	1.625435E-2	4.680857E-3	3.539752E-3	8.618206E-3	4.136767E-3	1.236766E-3
10/19/2017  17:43:57.016543	1.940644E-1	3.194078E-3	3.999948E-3	1.010911E-2	1.844749E-3	7.062755E-3	5.460959E-3	2.819665E-3
10/19/2017  17:43:57.017543	2.718686E-1	6.527325E-3	5.504580E-3	3.421496E-3	5.651039E-3	1.157125E-2	3.469066E-3	6.997006E-3
10/19/2017  17:43:57.018543	4.037758E-1	1.729694E-2	8.735346E-3	2.150937E-3	1.350519E-2	5.162450E-3	6.795739E-3	3.498076E-3
10/19/2017  17:43:57.019543	1.011371E+0	1.278621E-3	3.066108E-3	8.264137E-3	5.794505E-3	4.576165E-3	3.352012E-3	2.239169E-3
10/19/2017  17:43:57.020543	1.647722E+0	2.114530E-2	2.855324E-3	6.563243E-4	8.639970E-3	1.024502E-2	8.943531E-3	5.279114E-3
10/19/2017  17:43:57.021543	2.217946E-1	2.534921E-3	3.843779E-3	1.595141E-3	7.012224E-3	3.201907E-3	6.613650E-3	3.146779E-4
10/19/2017  17:43:57.022543	6.318619E-1	4.401272E-3	8.853883E-3	3.336728E-3	3.678599E-3	2.297337E-3	2.457263E-3	4.324828E-3
10/19/2017  17:43:57.023543	1.148257E+0	9.020590E-4	6.850092E-3	6.728962E-3	3.929784E-3	1.523416E-3	6.874386E-4	1.157727E-3
10/19/2017  17:43:57.024543	1.829156E+0	1.820466E-3	3.518860E-3	4.126897E-3	5.928511E-3	7.764808E-3	1.349472E-3	5.048692E-3
10/19/2017  17:43:57.025543	8.174873E-1	5.878109E-3	4.314444E-3	1.826856E-2	6.268957E-3	3.316989E-3	8.083959E-3	3.284410E-3
10/19/2017  17:43:57.026543	6.124140E-1	2.256148E-3	5.454868E-3	4.804927E-3	4.612565E-3	6.522392E-3	5.619298E-4	2.191552E-2
10/19/2017  17:43:57.027543	2.703253E+0	1.534895E-3	4.775651E-3	2.339975E-2	5.769339E-3	3.959233E-3	2.423166E-3	8.439762E-3
10/19/2017  17:43:57.028543	2.796334E+0	9.853542E-3	1.030359E-3	9.668069E-3	4.477482E-3	2.692669E-3	5.008370E-3	4.039690E-3
10/19/2017  17:43:57.029543	2.640681E+0	8.312741E-3	7.324692E-3	6.772264E-4	2.994168E-3	1.562206E-2	7.996172E-3	3.620761E-3
10/19/2017  17:43:57.030543	7.511545E-1	5.916440E-3	1.009261E-2	1.478054E-3	6.882426E-3	4.328337E-3	7.483780E-3	3.261693E-4
10/19/2017  17:43:57.031543	3.693534E-2	4.124345E-4	1.575092E-3	3.549841E-3	7.040653E-4	1.054033E-2	3.287119E-3	2.079572E-3
10/19/2017  17:43:57.032543	6.367373E-1	6.613484E-4	5.207763E-3	5.539986E-4	4.870033E-3	3.545423E-3	1.069683E-4	4.901737E-3
10/19/2017  17:43:57.033543	7.975680E-1	3.479385E-3	1.198703E-3	2.711856E-3	7.624232E-3	1.629362E-3	1.513584E-2	1.113029E-3
10/19/2017  17:43:57.034543	1.283797E+0	6.684452E-3	9.025507E-3	1.063427E-2	3.775226E-3	9.424861E-4	2.665185E-3	1.190047E-2
10/19/2017  17:43:57.035543	1.850530E+0	2.931509E-3	1.604184E-2	5.031997E-3	5.379687E-3	4.694673E-3	6.787891E-3	6.776133E-3
10/19/2017  17:43:57.036543	1.778118E+0	4.213443E-3	1.161010E-3	5.765829E-3	1.314025E-2	1.444566E-2	3.459788E-3	2.648957E-3
10/19/2017  17:43:57.037543	3.606930E-1	1.243134E-2	3.792116E-3	4.688320E-3	6.647593E-3	5.997116E-3	2.302903E-3	6.934111E-3
10/19/2017  17:43:57.038543	9.659448E-1	9.379347E-5	2.866586E-3	5.896205E-4	3.360343E-3	4.702503E-3	2.070192E-3	2.728259E-3
10/19/2017  17:43:57.039543	8.204852E-2	2.353510E-3	2.055041E-3	2.176478E-3	1.262164E-3	2.890763E-3	2.476463E-3	4.406352E-4
10/19/2017  17:43:57.040543	6.417548E+0	4.593142E-3	9.988715E-3	7.614660E-3	6.345377E-3	3.880457E-3	5.185002E-3	5.650356E-4
10/19/2017  17:43:57.041543	4.548271E+0	1.448694E-3	2.089559E-3	2.513643E-2	9.417382E-3	6.421574E-3	4.017554E-3	2.807643E-3
								
10/19/2017  17:43:57.042543	2.175991E+0	1.464060E-3	4.285862E-3	4.497393E-3	6.095860E-3	6.324089E-4	3.472422E-3	2.168291E-3
10/19/2017  17:43:57.043543	3.204688E+0	3.611113E-3	7.222078E-3	8.444092E-3	1.764161E-2	7.788817E-4	6.850001E-5	8.374109E-4
10/19/2017  17:43:57.044543	1.235259E+0	5.026366E-3	8.654557E-3	6.653499E-3	5.041759E-3	8.727050E-4	2.399062E-3	2.979336E-3
10/19/2017  17:43:57.045543	2.090930E+0	6.433985E-4	2.485467E-3	7.264516E-3	1.716166E-3	3.080098E-3	8.389169E-3	6.551545E-3
10/19/2017  17:43:57.046543	3.175883E+0	1.787588E-3	1.497413E-2	1.637473E-2	2.884610E-3	2.240765E-4	5.827575E-3	1.758454E-4
10/19/2017  17:43:57.047543	3.795606E+0	5.619507E-3	1.209919E-2	2.362269E-3	2.630600E-3	8.956495E-3	1.508821E-3	4.182944E-3
10/19/2017  17:43:57.048543	4.584489E-1	1.131661E-2	8.936056E-4	3.594286E-3	2.196701E-3	2.922420E-4	4.191051E-4	8.273563E-3
10/19/2017  17:43:57.049543	1.848738E+0	2.912030E-3	4.987351E-3	3.478356E-3	4.672178E-3	5.978996E-3	4.615502E-4	4.690582E-3
10/19/2017  17:43:57.050543	2.510599E+0	2.249386E-3	1.268247E-2	1.194411E-2	5.784920E-3	9.257073E-3	1.194296E-2	3.485494E-3
10/19/2017  17:43:57.051543	1.219684E+0	1.127258E-2	9.768510E-3	1.104585E-2	4.435374E-3	4.187182E-4	4.613468E-3	2.766081E-3
10/19/2017  17:43:57.052543	1.833777E-1	1.191548E-2	3.559865E-3	5.244085E-3	7.536574E-3	5.938425E-3	3.011013E-3	6.495593E-3
10/19/2017  17:43:57.053543	4.007282E-3	2.189912E-3	8.604999E-3	1.639553E-3	1.528396E-3	1.569820E-3	8.917706E-3	4.428784E-3
10/19/2017  17:43:57.054543	3.187785E-1	4.914147E-3	1.839387E-3	3.306127E-3	3.700990E-3	6.021376E-3	6.631753E-3	1.329463E-3
10/19/2017  17:43:57.055543	1.046554E+0	5.309659E-3	3.326368E-3	2.200818E-3	9.456291E-3	4.783802E-3	1.897577E-3	5.259816E-3
10/19/2017  17:43:57.056543	1.765530E+0	2.679961E-3	4.193143E-3	7.341116E-3	2.353166E-3	8.017215E-3	5.804350E-3	1.185190E-2
10/19/2017  17:43:57.057543	1.062582E+0	6.153810E-3	1.056347E-2	7.385588E-3	7.216742E-3	5.133841E-3	1.871528E-3	1.009086E-4
10/19/2017  17:43:57.058543	4.229212E-1	8.356087E-3	1.326916E-3	5.923930E-3	3.522319E-3	7.898327E-3	1.087900E-3	4.395130E-3
10/19/2017  17:43:57.059543	2.845779E+0	7.758532E-3	1.026947E-3	4.480339E-3	2.700822E-4	1.287182E-3	4.417031E-4	1.347460E-3
10/19/2017  17:43:57.060543	3.839196E+0	1.473919E-2	4.758713E-4	3.261888E-3	1.507782E-2	7.572558E-4	8.711423E-3	3.209223E-3
10/19/2017  17:43:57.061543	2.091161E+0	6.141281E-3	2.146710E-3	2.245503E-3	9.202447E-3	6.475302E-3	2.339425E-3	2.016449E-3
10/19/2017  17:43:57.062543	1.163193E-1	9.007769E-3	2.499507E-3	5.070862E-3	2.494254E-3	1.350271E-2	8.022975E-3	3.272520E-3
10/19/2017  17:43:57.063543	2.752252E+0	2.043905E-3	1.375214E-2	7.008767E-4	4.604180E-3	5.719596E-3	7.702916E-3	1.685419E-3
10/19/2017  17:43:57.064543	2.683191E+0	1.246361E-3	7.550199E-3	5.192582E-4	2.998380E-3	6.624352E-3	5.030079E-3	5.161859E-3
10/19/2017  17:43:57.065543	2.194882E+0	5.895504E-3	5.253483E-3	1.042215E-2	4.817539E-3	2.059947E-3	5.480984E-3	1.202973E-2
10/19/2017  17:43:57.066543	1.498335E+0	2.159408E-3	9.637133E-3	4.822624E-3	5.661714E-4	4.725610E-3	8.509696E-3	6.347836E-3
10/19/2017  17:43:57.067543	3.945576E-1	2.777979E-3	5.090566E-4	2.326472E-2	8.585428E-3	7.456211E-4	6.963342E-3	2.014757E-3
10/19/2017  17:43:57.068543	1.184215E+0	6.757147E-3	3.917521E-3	5.071024E-3	1.800513E-3	8.655737E-3	1.629704E-3	9.853791E-3
10/19/2017  17:43:57.069543	1.506209E-1	1.794101E-3	1.730257E-3	3.640685E-3	1.024512E-3	4.391087E-3	8.835388E-4	2.842110E-3
10/19/2017  17:43:57.070543	1.298276E+0	1.435078E-2	7.400625E-4	8.371490E-3	3.035772E-3	1.526779E-3	4.906001E-4	2.359477E-3
10/19/2017  17:43:57.071543	1.566315E-1	5.355911E-3	4.623711E-3	2.801989E-3	6.456703E-3	3.563510E-3	1.780293E-4	2.612011E-3
10/19/2017  17:43:57.072543	3.600659E-1	8.555150E-3	1.442118E-2	1.072544E-2	2.150478E-3	1.616259E-3	2.221546E-3	1.725994E-3
10/19/2017  17:43:57.073543	1.170184E-2	4.622337E-3	2.751965E-3	2.954564E-3	3.258443E-3	3.350831E-3	4.778996E-3	5.286103E-3
10/19/2017  17:43:57.074543	1.772135E+0	9.335530E-4	1.284342E-2	4.989097E-3	4.885521E-3	6.755586E-3	9.588506E-4	1.073299E-3
								
10/19/2017  17:43:57.075543	8.600339E-1	1.474101E-2	4.256259E-3	1.107137E-2	2.791615E-3	4.538073E-3	6.173839E-3	2.233134E-3
10/19/2017  17:43:57.076543	2.960717E-1	4.873448E-3	9.932285E-3	6.023623E-3	6.981436E-3	9.139475E-3	8.880018E-3	1.007111E-2
10/19/2017  17:43:57.077543	1.932610E+0	6.279171E-4	6.143931E-4	2.029515E-2	1.430020E-3	1.181505E-2	6.861640E-3	5.588050E-3
10/19/2017  17:43:57.078543	4.484770E+0	2.382027E-3	6.136569E-3	5.795277E-4	7.413345E-3	7.034136E-3	2.803266E-3	1.512374E-2
10/19/2017  17:43:57.079543	1.301199E+0	5.125137E-3	8.717613E-3	2.639332E-3	1.028189E-2	9.827620E-4	8.870567E-3	1.389189E-2
10/19/2017  17:43:57.080543	2.706256E+0	5.999737E-3	6.913352E-3	4.625840E-3	1.229384E-3	4.137472E-3	4.144990E-4	1.046767E-2
10/19/2017  17:43:57.081543	1.297290E+0	1.231218E-4	4.906320E-3	1.176422E-3	1.378577E-2	7.426988E-3	2.806097E-3	9.730278E-3
10/19/2017  17:43:57.082543	2.513864E+0	6.698967E-3	5.412912E-3	9.648564E-3	1.029642E-2	2.435696E-4	4.195232E-3	6.748063E-5
10/19/2017  17:43:57.083543	2.841168E+0	3.982848E-3	1.805500E-3	4.130273E-3	7.732863E-3	9.333706E-3	8.258785E-3	1.124466E-2
10/19/2017  17:43:57.084543	9.418473E-1	7.036598E-4	9.518842E-3	1.255222E-3	5.280293E-3	7.503590E-4	3.933422E-3	5.425829E-4
10/19/2017  17:43:57.085543	6.036686E-1	1.693984E-3	8.690815E-3	1.404619E-3	1.425157E-3	3.209888E-3	1.511189E-3	3.934248E-3
10/19/2017  17:43:57.086543	3.835122E-3	5.288697E-3	4.137352E-3	7.573320E-3	3.593486E-3	7.022771E-3	3.271040E-3	4.795953E-3
10/19/2017  17:43:57.087543	6.829436E-1	3.586813E-3	1.014453E-2	8.431379E-4	1.603185E-3	8.196488E-4	2.246417E-3	1.211514E-2
10/19/2017  17:43:57.088543	2.825728E+0	6.467958E-3	1.242915E-2	1.272437E-2	5.552304E-3	7.098970E-3	9.397146E-3	2.178523E-3
10/19/2017  17:43:57.089543	2.391218E+0	2.643771E-3	6.504805E-3	1.047588E-2	8.281147E-3	2.630253E-3	4.401987E-3	5.075656E-3
10/19/2017  17:43:57.090543	1.561387E+0	6.699149E-3	8.909325E-3	5.081064E-3	9.642537E-3	5.078165E-3	1.237324E-2	7.335789E-4
10/19/2017  17:43:57.091543	5.083278E-1	8.482285E-3	8.849285E-3	3.406873E-3	5.023438E-4	8.287173E-3	1.994584E-3	5.819115E-4
10/19/2017  17:43:57.092543	1.934856E+0	2.549250E-3	2.385734E-3	2.937435E-3	4.036613E-4	5.515438E-4	5.782014E-3	3.855921E-3
10/19/2017  17:43:57.093543	2.706187E+0	4.734306E-3	8.206639E-3	6.829995E-3	3.266815E-4	8.228575E-3	6.868714E-3	1.783503E-3
10/19/2017  17:43:57.094543	1.750679E+0	1.191312E-2	1.200579E-3	2.863299E-3	4.595095E-3	5.529361E-3	3.751179E-3	7.949395E-3
10/19/2017  17:43:57.095543	3.988454E+0	7.251888E-3	1.783051E-3	4.440065E-3	9.675001E-4	5.451432E-3	1.720692E-3	3.076866E-3
10/19/2017  17:43:57.096543	7.626851E-1	1.429744E-2	8.213193E-3	1.314216E-3	3.863232E-3	7.871681E-3	5.584717E-3	8.267585E-5
10/19/2017  17:43:57.097543	1.845744E+0	5.018545E-3	6.946392E-3	1.090837E-3	6.779102E-4	6.371910E-3	7.005891E-3	1.287467E-2
10/19/2017  17:43:57.098543	4.577880E-1	3.595064E-3	1.917239E-3	9.911083E-3	1.651415E-3	7.191064E-3	2.813148E-3	4.312610E-3
10/19/2017  17:43:57.099543	2.406641E-1	4.079017E-3	6.085110E-3	4.254657E-3	7.582822E-3	3.136674E-3	8.975933E-3	9.370364E-3
10/19/2017  17:43:57.100543	8.143962E-1	3.525599E-3	1.856141E-4	1.340187E-3	1.014842E-2	6.422511E-3	4.527473E-3	1.466493E-3
10/19/2017  17:43:57.101543	7.186567E-1	1.973624E-4	2.412451E-3	1.001379E-2	1.339558E-3	6.402146E-3	3.265631E-3	1.300817E-2
10/19/2017  17:43:57.102543	2.012466E-1	4.382259E-3	6.062058E-3	6.853417E-4	9.555442E-3	2.148346E-4	4.269615E-3	5.624636E-3
10/19/2017  17:43:57.103543	1.527514E-1	3.168523E-3	4.568141E-3	3.917885E-3	4.457837E-3	6.440522E-3	7.760549E-3	7.202023E-5
10/19/2017  17:43:57.104543	6.396595E-1	6.456519E-3	9.193161E-4	9.222195E-3	5.716470E-3	1.641238E-4	3.363252E-3	6.078478E-3
10/19/2017  17:43:57.105543	1.233446E+0	1.382830E-4	4.807477E-3	3.620700E-4	2.040458E-3	4.354788E-3	4.490613E-4	1.571359E-3
10/19/2017  17:43:57.106543	1.473668E+0	6.105557E-4	9.924738E-3	7.284425E-3	7.944754E-3	1.243225E-3	3.814864E-3	2.336974E-2
10/19/2017  17:43:57.107543	2.144300E-1	3.345955E-3	6.634727E-4	3.316197E-3	1.184053E-3	3.392453E-3	2.373899E-3	7.669423E-4
								
10/19/2017  17:43:57.108543	2.248143E+0	1.128312E-2	3.872943E-3	1.110775E-2	1.261076E-3	2.091777E-3	3.122664E-3	5.217842E-3
10/19/2017  17:43:57.109543	1.721199E+0	2.460196E-4	8.165064E-3	5.427553E-3	5.184981E-3	2.653847E-3	6.971038E-3	9.034582E-3
10/19/2017  17:43:57.110543	1.543797E+0	8.516791E-3	7.298599E-3	2.009414E-3	3.038589E-3	2.725025E-3	8.042979E-4	2.766340E-3
10/19/2017  17:43:57.111543	3.153692E+0	1.833403E-2	1.337982E-3	4.829986E-3	5.216253E-3	4.354804E-3	7.991396E-3	9.055931E-3
10/19/2017  17:43:57.112543	2.517031E+0	1.471184E-4	1.398415E-2	1.310811E-3	4.506730E-3	3.196591E-3	9.993995E-4	1.884467E-3
10/19/2017  17:43:57.113543	5.486550E-1	4.343139E-3	9.969705E-3	1.004393E-2	6.011792E-3	6.407031E-3	8.427428E-3	9.971255E-4
10/19/2017  17:43:57.114543	6.061810E+0	7.716191E-3	7.353479E-3	7.779438E-4	3.960929E-3	5.693649E-5	1.897881E-3	8.372810E-3
10/19/2017  17:43:57.115543	4.421458E+0	5.226552E-3	7.829742E-3	2.717976E-3	2.057035E-3	1.924492E-3	2.896441E-3	2.496678E-3
10/19/2017  17:43:57.116543	5.570098E-1	9.811902E-3	1.030993E-3	1.046838E-2	6.334305E-3	1.177495E-2	6.725662E-3	3.706517E-3
10/19/2017  17:43:57.117543	5.389749E+0	2.968954E-3	3.054462E-3	1.038613E-2	4.816996E-3	7.648632E-3	2.541685E-3	5.033171E-5
10/19/2017  17:43:57.118543	3.796430E+0	6.388594E-3	5.398225E-5	1.415557E-2	2.990804E-3	6.695405E-3	1.534239E-3	9.109481E-3
10/19/2017  17:43:57.119543	2.411127E+0	1.309946E-2	4.607988E-5	1.403884E-2	4.498330E-3	4.956565E-3	6.910468E-4	8.426129E-3
10/19/2017  17:43:57.120543	1.051133E+0	6.438606E-4	4.351906E-3	6.216030E-3	1.015718E-3	6.734944E-3	4.317842E-3	3.110444E-3
10/19/2017  17:43:57.121543	2.377407E+0	1.890938E-3	2.917046E-3	5.498081E-3	9.252652E-3	7.776176E-3	1.302191E-3	6.999628E-3
10/19/2017  17:43:57.122543	2.782659E+0	2.834812E-3	2.601961E-3	4.813788E-3	6.930299E-3	1.732859E-3	3.425605E-3	1.292032E-3
10/19/2017  17:43:57.123543	6.404018E+0	6.092590E-3	1.234906E-5	1.496605E-2	7.505019E-3	1.638587E-3	1.645757E-3	5.033943E-3
10/19/2017  17:43:57.124543	4.564485E+0	2.668880E-3	1.821492E-3	1.513018E-2	3.212563E-3	1.506517E-3	3.036303E-3	3.319208E-3
10/19/2017  17:43:57.125543	1.985529E-2	1.105668E-2	8.620605E-4	2.772115E-3	6.025818E-5	7.821086E-3	4.560510E-4	9.208160E-3
10/19/2017  17:43:57.126543	2.714386E+0	6.641743E-4	1.070999E-2	6.967777E-3	6.772330E-3	3.120443E-3	7.310635E-3	8.559574E-3
10/19/2017  17:43:57.127543	1.425221E+0	4.762311E-3	5.182318E-3	3.245464E-3	3.833816E-3	6.568393E-3	3.163123E-3	1.141691E-2
10/19/2017  17:43:57.128543	5.823260E-1	9.777467E-3	3.062364E-3	1.557514E-2	4.634444E-4	2.031679E-3	1.905722E-3	3.679996E-3
10/19/2017  17:43:57.129543	1.929345E+0	3.633608E-4	1.319311E-2	4.348510E-3	6.333586E-3	5.968126E-3	7.751305E-3	8.578944E-3
10/19/2017  17:43:57.130543	6.531712E-1	2.144282E-3	8.213017E-3	9.879956E-3	6.362539E-3	4.445153E-3	7.337862E-4	2.208841E-4
10/19/2017  17:43:57.131543	1.666912E+0	4.754494E-3	1.032120E-2	3.875210E-3	2.108565E-3	5.503111E-3	1.828103E-3	6.526135E-3
10/19/2017  17:43:57.132543	1.020251E+0	1.324491E-3	5.919371E-3	7.985039E-3	3.803538E-3	3.746595E-3	3.592043E-3	8.696663E-3
10/19/2017  17:43:57.133543	2.579699E+0	3.526251E-3	1.087876E-2	3.169139E-3	1.245145E-2	9.688867E-5	3.942515E-3	6.339088E-3
10/19/2017  17:43:57.134543	2.487058E+0	1.490073E-3	7.665210E-3	6.977195E-3	6.245500E-3	6.032649E-3	5.646682E-4	8.598712E-3
10/19/2017  17:43:57.135543	1.044747E+0	1.474789E-3	3.063950E-3	5.368125E-3	7.437965E-4	1.163992E-2	1.052325E-2	2.633325E-3
10/19/2017  17:43:57.136543	1.253480E+0	1.652572E-2	1.693363E-4	3.353707E-4	1.231881E-2	4.476613E-3	3.576691E-3	1.985175E-3
10/19/2017  17:43:57.137543	9.684080E-1	3.620736E-3	4.675286E-3	2.065554E-3	2.838533E-3	9.948820E-3	2.815583E-3	5.036784E-3
10/19/2017  17:43:57.138543	1.381401E+0	1.583507E-2	1.242757E-3	4.933793E-3	6.730108E-3	1.666750E-3	2.166578E-3	3.108687E-3
10/19/2017  17:43:57.139543	1.567928E+0	8.481296E-3	7.759691E-3	1.068720E-3	7.067187E-3	2.991534E-3	4.854353E-3	6.695447E-3
10/19/2017  17:43:57.140543	1.788277E-2	8.353722E-3	7.730400E-3	7.596446E-3	3.855903E-3	2.785616E-4	7.600540E-3	3.392478E-4
								
10/19/2017  17:43:57.141543	1.042199E+0	7.244279E-3	3.430383E-3	5.994449E-3	1.406498E-3	1.127162E-2	1.021927E-3	6.423589E-3
10/19/2017  17:43:57.142543	2.672507E+0	8.910106E-4	6.305454E-3	4.267470E-4	1.004359E-2	7.659546E-4	7.175356E-3	6.270533E-3
10/19/2017  17:43:57.143543	3.075402E+0	5.882107E-3	4.384514E-3	1.005003E-2	1.635385E-3	2.952609E-3	3.853301E-3	6.487943E-3
10/19/2017  17:43:57.144543	4.366558E+0	3.153347E-4	3.704713E-3	6.684812E-3	9.974902E-3	9.846811E-5	7.335537E-3	2.315597E-3
10/19/2017  17:43:57.145543	3.547669E+0	2.628833E-3	7.490040E-4	2.064952E-2	1.807472E-3	2.374503E-3	8.862346E-4	4.269246E-3
10/19/2017  17:43:57.146543	1.203814E+0	2.282110E-3	7.665271E-4	6.962979E-3	1.591685E-3	1.758750E-3	2.668200E-3	3.128120E-3
10/19/2017  17:43:57.147543	1.141174E+0	7.820371E-4	5.080580E-3	1.533053E-3	7.887630E-3	5.236607E-3	2.659933E-3	4.665323E-3
10/19/2017  17:43:57.148543	3.125474E+0	1.376796E-2	6.802285E-4	3.242273E-3	1.254120E-3	1.386182E-3	2.074952E-3	1.008371E-2
10/19/2017  17:43:57.149543	2.303950E+0	3.423977E-3	4.822238E-4	4.295218E-3	3.584903E-3	4.998911E-3	5.923498E-4	5.915135E-3
10/19/2017  17:43:57.150543	2.962989E-2	7.041468E-3	6.158179E-3	3.832070E-3	3.913053E-3	8.521037E-4	2.481674E-3	8.565830E-5
10/19/2017  17:43:57.151543	6.559556E-1	1.460071E-3	1.579327E-4	9.177759E-4	1.688156E-3	7.128239E-5	2.755740E-3	7.614699E-5
10/19/2017  17:43:57.152543	2.450188E-1	3.275805E-3	1.336654E-2	3.141097E-3	5.168268E-3	7.269744E-3	6.237507E-5	8.577655E-3
10/19/2017  17:43:57.153543	3.657089E-2	2.105799E-3	7.970136E-3	1.048719E-2	9.655551E-4	2.944206E-3	4.240771E-3	1.149664E-2
10/19/2017  17:43:57.154543	1.295708E-1	1.576670E-3	7.799593E-4	2.481092E-3	1.617964E-2	1.362041E-2	1.022166E-2	3.838594E-3
10/19/2017  17:43:57.155543	1.063774E-1	3.283970E-3	1.589235E-3	3.483046E-3	4.740816E-3	5.283210E-3	7.478132E-4	1.882791E-3
10/19/2017  17:43:57.156543	2.253944E-1	6.512016E-3	1.054627E-3	3.095695E-3	1.609283E-3	1.217699E-2	1.814278E-3	1.636386E-3
10/19/2017  17:43:57.157543	4.577604E-1	2.286245E-3	5.871421E-3	9.682537E-3	4.639824E-3	1.151544E-2	5.033568E-3	7.891157E-3
10/19/2017  17:43:57.158543	5.650241E-1	4.240663E-3	8.843977E-3	3.396234E-3	1.279143E-2	1.513002E-2	5.400523E-3	7.382509E-3
10/19/2017  17:43:57.159543	7.789160E-1	1.195745E-2	2.574685E-3	7.712142E-3	3.306849E-3	8.885943E-3	1.906402E-3	5.077300E-3
10/19/2017  17:43:57.160543	4.419416E-1	4.007365E-3	4.223855E-3	1.063151E-2	4.485268E-4	4.414636E-3	7.154345E-3	7.647401E-3
10/19/2017  17:43:57.161543	4.753817E-1	1.942707E-3	5.569123E-3	1.044887E-2	1.833256E-2	8.064706E-4	1.781827E-3	3.541850E-3
10/19/2017  17:43:57.162543	4.529900E-1	4.028226E-3	4.927831E-3	9.588878E-3	2.072168E-3	2.445445E-3	3.858785E-3	3.881503E-3
10/19/2017  17:43:57.163543	6.851057E-1	3.250378E-3	1.477727E-3	6.680231E-3	1.019685E-2	5.618187E-3	9.521640E-3	2.559215E-3
10/19/2017  17:43:57.164543	1.171571E+0	1.112297E-2	9.708839E-3	8.231954E-4	6.063154E-3	1.617385E-2	2.373684E-3	3.620505E-3
10/19/2017  17:43:57.165543	1.220959E-1	3.715132E-3	8.620011E-3	5.210670E-3	4.131049E-3	1.203699E-3	9.380736E-3	8.775092E-3
10/19/2017  17:43:57.166543	5.323430E-1	3.957032E-3	2.008628E-3	1.636270E-3	1.711022E-3	6.843941E-4	4.151273E-3	2.219369E-3
10/19/2017  17:43:57.167543	1.291850E+0	1.482981E-3	1.478023E-3	3.277708E-3	1.526333E-3	2.409025E-3	2.912992E-3	6.910092E-3
10/19/2017  17:43:57.168543	8.552565E-1	1.009008E-3	5.341381E-3	1.301605E-2	8.322037E-4	1.344613E-3	6.760398E-3	6.280294E-3
10/19/2017  17:43:57.169543	1.232865E+0	7.085145E-3	3.536499E-3	1.470918E-2	8.332235E-3	1.688870E-3	5.994204E-3	2.558365E-3
10/19/2017  17:43:57.170543	2.432487E+0	4.005079E-3	2.287437E-3	4.919323E-3	2.772256E-3	1.247735E-2	8.841433E-3	4.553706E-3
10/19/2017  17:43:57.171543	1.271553E+0	3.264615E-3	1.074230E-2	3.757858E-3	4.173037E-3	1.895855E-3	2.456939E-3	1.333423E-3
10/19/2017  17:43:57.172543	2.270554E+0	4.641219E-3	9.196419E-4	6.270232E-4	6.732054E-4	1.369071E-3	6.173749E-3	3.364820E-3
10/19/2017  17:43:57.173543	1.551721E+0	2.792919E-3	1.143286E-2	5.346612E-4	1.876826E-3	9.866895E-3	4.387615E-3	3.581819E-4
								
10/19/2017  17:43:57.174543	2.335502E-1	1.144415E-2	1.172659E-3	8.167637E-3	2.867834E-3	1.273464E-2	5.329239E-3	4.646110E-3
10/19/2017  17:43:57.175543	7.520986E-2	1.759722E-3	1.496294E-2	5.431778E-3	1.115481E-2	1.116585E-2	5.034197E-3	1.025761E-3
10/19/2017  17:43:57.176543	4.266371E+0	1.169945E-3	2.165563E-3	6.388813E-3	9.190592E-4	7.784497E-3	4.987268E-3	5.977297E-3
10/19/2017  17:43:57.177543	2.025642E+0	4.988688E-3	2.836941E-3	1.262421E-2	3.366971E-3	8.167972E-3	9.826749E-4	6.499753E-3
10/19/2017  17:43:57.178543	9.832579E-1	9.793167E-3	8.800344E-3	6.243003E-3	1.057165E-2	1.024281E-2	5.254757E-3	6.426896E-3
10/19/2017  17:43:57.179543	3.548268E+0	4.902208E-3	7.003522E-3	3.050580E-3	8.613899E-3	3.869426E-3	7.008075E-3	1.043594E-2
10/19/2017  17:43:57.180543	2.578485E+0	7.483564E-3	5.667686E-3	3.255699E-3	4.906939E-4	7.417885E-3	3.914080E-3	2.632222E-3
10/19/2017  17:43:57.181543	4.607327E-1	7.685222E-3	3.705376E-3	1.190390E-2	3.354349E-3	1.141765E-3	8.268732E-4	7.493163E-3
10/19/2017  17:43:57.182543	1.924043E+0	9.845409E-4	8.724216E-3	5.083561E-3	3.317804E-3	1.388423E-3	7.314143E-4	2.767233E-3
10/19/2017  17:43:57.183543	2.999569E+0	1.746610E-3	2.124019E-3	4.319186E-3	7.629245E-4	1.165008E-3	7.105933E-3	2.977967E-3
10/19/2017  17:43:57.184543	6.074464E+0	2.822961E-3	3.147978E-3	1.657061E-2	5.915415E-3	2.943963E-3	5.905687E-3	7.033026E-3
10/19/2017  17:43:57.185543	5.213775E+0	4.831766E-3	8.292221E-3	1.814195E-2	7.263872E-3	6.718594E-3	8.417736E-5	1.030922E-3
10/19/2017  17:43:57.186543	1.242403E+0	3.664687E-3	1.167413E-3	1.088384E-3	1.457424E-3	3.893958E-3	6.545007E-3	9.978120E-4
10/19/2017  17:43:57.187543	3.361303E+0	3.818215E-3	3.660936E-3	8.533247E-3	5.893088E-3	1.135330E-2	8.543035E-3	7.417540E-3
10/19/2017  17:43:57.188543	1.681777E+0	1.039645E-2	1.397364E-2	7.137035E-3	6.664199E-3	1.102648E-3	3.926610E-3	5.573945E-3
10/19/2017  17:43:57.189543	5.992552E-1	5.029466E-3	5.148840E-3	1.669175E-2	3.921508E-3	7.922244E-3	8.217866E-3	4.285888E-4
10/19/2017  17:43:57.190543	1.642264E-1	1.273554E-3	7.225064E-3	7.400596E-3	3.757673E-3	4.756067E-3	1.481478E-3	6.889424E-3
10/19/2017  17:43:57.191543	4.918089E+0	5.813629E-3	7.146971E-3	1.233529E-2	6.922924E-3	5.800465E-3	1.640243E-2	6.059533E-3
10/19/2017  17:43:57.192543	1.204047E+0	2.294064E-4	1.103167E-2	6.543613E-3	8.478126E-3	6.696374E-3	6.009359E-3	8.647335E-3
10/19/2017  17:43:57.193543	1.099519E+0	4.868601E-3	1.268662E-2	2.039087E-3	1.920768E-3	5.905955E-3	8.958421E-3	7.166999E-3
10/19/2017  17:43:57.194543	2.616260E+0	5.852770E-3	1.199755E-2	1.647399E-2	1.800035E-2	2.570366E-3	2.271533E-3	5.288332E-3
10/19/2017  17:43:57.195543	7.923163E-1	2.337974E-3	6.282318E-3	1.170881E-3	1.154049E-3	6.413228E-3	3.790162E-3	9.269202E-3
10/19/2017  17:43:57.196543	1.749985E+0	5.012537E-4	8.952763E-3	3.027054E-3	1.114506E-2	6.227001E-3	6.080491E-3	2.257387E-3
10/19/2017  17:43:57.197543	3.885905E-1	1.547109E-2	2.058218E-3	4.223234E-3	4.444075E-3	6.501584E-5	4.149247E-5	8.305324E-3
10/19/2017  17:43:57.198543	6.170633E-1	4.717726E-3	1.239410E-3	4.873042E-3	4.840249E-3	6.759954E-3	6.621556E-3	6.844816E-4
10/19/2017  17:43:57.199543	1.276954E+0	1.694112E-2	8.065901E-3	1.401970E-3	1.689949E-2	4.788158E-3	6.203270E-3	7.154709E-3
10/19/2017  17:43:57.200543	2.099013E+0	7.394358E-3	5.762270E-3	1.582938E-3	8.025726E-3	7.676130E-3	4.361092E-3	7.928148E-3
10/19/2017  17:43:57.201543	2.360765E+0	5.150934E-3	9.143456E-3	1.683957E-3	9.919449E-3	3.102077E-3	1.506659E-3	1.138446E-3
10/19/2017  17:43:57.202543	3.098035E+0	7.518598E-3	3.790992E-5	3.877220E-3	4.362797E-3	4.224561E-3	1.380349E-3	5.998038E-3
10/19/2017  17:43:57.203543	2.150395E+0	5.267728E-3	4.359593E-3	9.624903E-3	1.523353E-3	4.851206E-4	9.533106E-3	8.537132E-3
10/19/2017  17:43:57.204543	1.716435E+0	3.421202E-3	3.482399E-3	1.763774E-2	8.113882E-3	1.197252E-4	2.514727E-3	3.011173E-3
10/19/2017  17:43:57.205543	2.769786E+0	6.736847E-3	3.424509E-4	1.419145E-2	3.862848E-3	3.715170E-3	4.666295E-3	1.339504E-2
10/19/2017  17:43:57.206543	8.053940E-1	5.139043E-3	1.929002E-3	1.968859E-3	1.532667E-3	6.708399E-3	4.733935E-3	3.472491E-3
								
10/19/2017  17:43:57.207543	8.125219E-1	5.573587E-4	3.466924E-3	3.959714E-4	3.308600E-3	5.329046E-3	6.032130E-3	3.963021E-3
10/19/2017  17:43:57.208543	9.362684E-1	1.838775E-3	8.563875E-3	8.517615E-3	6.638965E-3	6.667300E-3	9.245001E-3	3.825323E-3
10/19/2017  17:43:57.209543	8.014982E-1	5.161289E-3	6.045142E-3	9.853319E-3	2.111710E-3	2.308739E-3	2.524936E-3	2.790720E-3
10/19/2017  17:43:57.210543	4.251832E-1	2.986432E-3	4.705191E-3	7.570604E-3	3.029300E-4	2.238412E-3	6.197051E-3	6.229818E-3
10/19/2017  17:43:57.211543	3.495688E-1	1.286445E-2	7.934620E-3	5.192354E-3	6.661334E-3	3.275356E-5	9.938825E-5	1.918934E-3
10/19/2017  17:43:57.212543	8.999178E-1	8.717666E-3	9.047396E-4	3.163231E-3	1.590883E-3	2.687790E-3	6.826040E-3	9.951198E-3
10/19/2017  17:43:57.213543	1.326744E+0	4.466284E-3	1.393084E-3	2.582510E-3	5.284426E-3	2.396512E-3	5.948220E-4	8.005644E-4
10/19/2017  17:43:57.214543	3.088775E+0	3.367832E-3	1.356187E-3	6.577037E-3	3.143486E-3	8.573675E-3	4.093432E-4	7.977068E-3
10/19/2017  17:43:57.215543	2.065243E+0	4.571996E-3	5.454257E-3	2.041411E-3	1.719163E-3	2.485784E-3	6.204471E-3	3.359073E-3
10/19/2017  17:43:57.216543	1.359538E+0	1.383498E-2	4.769007E-4	7.845258E-3	2.947197E-3	6.034349E-3	2.289875E-3	7.081380E-3
10/19/2017  17:43:57.217543	2.764119E-1	3.944797E-3	9.047694E-3	4.825117E-4	1.149072E-2	8.312128E-3	4.020309E-3	5.663231E-3
10/19/2017  17:43:57.218543	8.535276E+0	1.666019E-2	3.319970E-4	4.365345E-3	4.581896E-3	5.570871E-3	7.895029E-4	4.854719E-3
10/19/2017  17:43:57.219543	6.274172E+0	5.113600E-3	4.947904E-3	2.062751E-2	5.702151E-3	2.397118E-3	1.559063E-3	5.736963E-3
10/19/2017  17:43:57.220543	4.073572E+0	1.097470E-3	2.726017E-3	1.190162E-2	1.285003E-2	1.297499E-2	1.152989E-3	2.540579E-3
10/19/2017  17:43:57.221543	3.789085E+0	4.048828E-3	7.015524E-3	1.664921E-2	2.102422E-3	4.871983E-3	9.126481E-4	6.248372E-3
10/19/2017  17:43:57.222543	1.490277E+0	1.134073E-3	1.395038E-3	6.313573E-3	2.015117E-3	1.239645E-3	3.603532E-3	6.477708E-3
10/19/2017  17:43:57.223543	1.458626E+0	9.850923E-4	9.040884E-4	7.827020E-3	2.410679E-3	5.648474E-3	6.276875E-3	4.469695E-3
10/19/2017  17:43:57.224543	4.726149E-1	6.200009E-3	2.660473E-3	4.030877E-3	1.098457E-3	6.492525E-3	2.329211E-3	9.410768E-3
10/19/2017  17:43:57.225543	6.753336E-1	4.633896E-3	7.011360E-3	2.649323E-3	6.458860E-3	6.709042E-3	6.230409E-4	6.970413E-3
10/19/2017  17:43:57.226543	9.090835E-1	7.501242E-3	7.020677E-4	7.665213E-4	5.174887E-3	3.015133E-3	5.696763E-4	5.252255E-3
10/19/2017  17:43:57.227543	1.254870E+0	1.376882E-3	6.042172E-3	1.800649E-2	2.438583E-3	8.893671E-3	5.103499E-4	3.502599E-3
10/19/2017  17:43:57.228543	9.825415E-1	7.721335E-3	4.497798E-3	4.839371E-3	7.371928E-3	1.316757E-2	2.604946E-3	5.378436E-3
10/19/2017  17:43:57.229543	1.680088E+0	1.181215E-2	5.404727E-3	1.635351E-3	9.793642E-3	1.801639E-3	1.693512E-2	1.514828E-2
10/19/2017  17:43:57.230543	1.585038E+0	7.048071E-3	1.364460E-2	7.442360E-4	4.071044E-3	3.915746E-3	1.025308E-2	2.047039E-3
10/19/2017  17:43:57.231543	1.324658E+0	7.366645E-3	8.179957E-4	8.376707E-3	9.114647E-4	7.649372E-3	1.371926E-3	5.373436E-3
10/19/2017  17:43:57.232543	9.467329E-2	3.551748E-3	1.928314E-2	1.578503E-3	7.764301E-4	2.618980E-3	2.885259E-3	2.746417E-4
10/19/2017  17:43:57.233543	2.192966E-1	6.959641E-3	1.692574E-3	9.911813E-3	1.504791E-3	5.519003E-3	2.859734E-3	6.446477E-3
10/19/2017  17:43:57.234543	6.482233E-1	6.009809E-3	8.126334E-3	3.845278E-3	1.208486E-2	9.041601E-3	4.755519E-3	2.562000E-4
10/19/2017  17:43:57.235543	1.124660E-1	6.517101E-3	4.862105E-3	4.916462E-3	8.981718E-3	6.059817E-3	3.777759E-3	8.274114E-4
10/19/2017  17:43:57.236543	3.528433E-1	2.027700E-3	1.150851E-3	5.375525E-3	6.438883E-3	7.130859E-3	2.915503E-3	9.910172E-3
10/19/2017  17:43:57.237543	1.499493E+0	1.025086E-2	3.300179E-3	6.095554E-3	8.691195E-3	9.294560E-4	3.367177E-6	9.396869E-4
10/19/2017  17:43:57.238543	2.712548E-1	3.746745E-3	2.560794E-3	4.452429E-3	1.894397E-3	4.129047E-3	2.214782E-3	7.687058E-3
10/19/2017  17:43:57.239543	1.008602E+0	2.897151E-3	4.555548E-3	5.349711E-3	9.580775E-3	3.192425E-3	2.780738E-3	1.613881E-3
								
10/19/2017  17:43:57.240543	1.887630E+0	6.493573E-3	1.345319E-3	5.085089E-3	4.407642E-3	4.651221E-3	6.262321E-3	1.825222E-3
10/19/2017  17:43:57.241543	2.353366E+0	1.553039E-4	9.875713E-3	1.024049E-2	1.254557E-2	5.780666E-3	4.470762E-3	4.111772E-3
10/19/2017  17:43:57.242543	3.787796E+0	6.583605E-3	2.606678E-3	8.115494E-3	4.731158E-3	4.474832E-3	3.372294E-3	7.776081E-3
10/19/2017  17:43:57.243543	3.204976E+0	1.821318E-3	6.143964E-4	3.676886E-3	1.842907E-2	8.748566E-4	2.419287E-3	7.921789E-3
10/19/2017  17:43:57.244543	3.290223E+0	3.486431E-3	5.699182E-3	4.606634E-3	4.709832E-3	1.254502E-2	5.567065E-4	9.828025E-4
10/19/2017  17:43:57.245543	8.467235E-1	4.104991E-3	8.621982E-4	2.858023E-3	1.038733E-2	1.307578E-5	1.614750E-3	9.017911E-4
10/19/2017  17:43:57.246543	9.796820E-1	9.376556E-3	5.606628E-3	7.237904E-3	3.288961E-3	1.554750E-2	3.399738E-3	1.329607E-3
10/19/2017  17:43:57.247543	1.840300E+0	1.319542E-2	1.097288E-2	3.048955E-3	4.322690E-3	6.310817E-3	4.724506E-3	5.788477E-3
10/19/2017  17:43:57.248543	4.441829E-1	5.125936E-3	7.713382E-4	5.942919E-3	3.809819E-3	4.476906E-3	7.472634E-3	2.034730E-3
10/19/2017  17:43:57.249543	5.510797E+0	5.545151E-3	3.757064E-3	3.120998E-3	5.188360E-3	1.403376E-3	7.887175E-4	1.402623E-3
10/19/2017  17:43:57.250543	5.427639E+0	1.602759E-2	1.810544E-3	9.586039E-3	3.785468E-3	7.777215E-3	1.488539E-2	8.812401E-4
10/19/2017  17:43:57.251543	1.379153E+0	1.539594E-3	3.598446E-3	5.217294E-3	2.587834E-3	5.561320E-3	2.554784E-3	4.775502E-3
10/19/2017  17:43:57.252543	2.579650E+0	5.500103E-3	4.731753E-3	2.461472E-3	5.860289E-4	6.068617E-4	6.381978E-3	1.293674E-3
10/19/2017  17:43:57.253543	8.461108E-1	7.007057E-3	7.483143E-3	7.856151E-3	5.043068E-3	1.444278E-3	2.140792E-4	1.314697E-3
10/19/2017  17:43:57.254543	1.055764E-1	5.900940E-3	8.190654E-3	4.854969E-3	4.936595E-3	5.793536E-3	6.408275E-3	1.292588E-3
10/19/2017  17:43:57.255543	3.919324E-1	1.769416E-4	8.335068E-3	8.402854E-3	3.276313E-3	4.366646E-3	4.220362E-3	1.235226E-3
10/19/2017  17:43:57.256543	1.171579E+0	2.389329E-3	5.833102E-4	6.131818E-3	6.905607E-3	2.844792E-3	3.051563E-3	9.783607E-3
10/19/2017  17:43:57.257543	3.072850E-1	2.605043E-3	3.801467E-3	5.352561E-3	4.883321E-3	1.566750E-2	4.415290E-3	6.842423E-3
10/19/2017  17:43:57.258543	4.771099E-1	3.924320E-3	1.882325E-3	3.837689E-3	1.412242E-2	4.521386E-3	3.347542E-3	1.074915E-2
10/19/2017  17:43:57.259543	2.985945E+0	8.269386E-3	5.921245E-3	2.750573E-3	5.517754E-3	8.084024E-3	4.459215E-3	7.782374E-4
10/19/2017  17:43:57.260543	4.806301E+0	1.019666E-2	2.223129E-3	5.278803E-3	1.200374E-2	2.587708E-3	3.601519E-3	2.541196E-3
10/19/2017  17:43:57.261543	3.999179E+0	8.347347E-3	7.142603E-3	1.123225E-2	7.766670E-3	5.793293E-3	3.677420E-3	9.290502E-3
10/19/2017  17:43:57.262543	8.938850E-1	4.090707E-3	2.758808E-3	8.541283E-3	1.309161E-2	5.178085E-3	8.718385E-3	1.339414E-4
10/19/2017  17:43:57.263543	1.802657E+0	5.619138E-3	1.350410E-2	1.109536E-2	9.893496E-3	2.112311E-3	1.184601E-2	1.078387E-5
10/19/2017  17:43:57.264543	3.302167E+0	2.779023E-3	1.322820E-3	7.656316E-3	1.506861E-3	6.614872E-3	2.428139E-3	1.718841E-2
10/19/2017  17:43:57.265543	1.667219E+0	2.065721E-3	3.325705E-3	3.505390E-3	5.326308E-3	6.897269E-3	8.753577E-3	5.809504E-3
10/19/2017  17:43:57.266543	1.904683E+0	1.113512E-3	3.143609E-4	3.109116E-4	2.992322E-3	1.421601E-2	3.056827E-3	1.784966E-2
10/19/2017  17:43:57.267543	3.215831E-2	1.818091E-3	1.856814E-3	6.380526E-3	8.854418E-3	9.207413E-3	1.147310E-2	1.865837E-4
10/19/2017  17:43:57.268543	5.601423E-1	2.593712E-3	5.479048E-3	4.168977E-3	2.492993E-3	2.647308E-4	1.925413E-3	2.392644E-3
10/19/2017  17:43:57.269543	7.221500E-1	1.294546E-3	5.154414E-3	9.366877E-3	2.402029E-3	9.260083E-3	7.278803E-4	6.903442E-3
10/19/2017  17:43:57.270543	5.314126E-1	1.908127E-3	3.499617E-4	3.959575E-3	7.945734E-3	4.106882E-3	8.173065E-3	2.989850E-4
10/19/2017  17:43:57.271543	9.712110E-1	1.712642E-2	4.366604E-3	6.252262E-3	1.468507E-3	4.910344E-3	3.083341E-3	8.833160E-3
10/19/2017  17:43:57.272543	1.287639E+0	1.403783E-3	1.189750E-2	1.166725E-3	6.091599E-3	1.417968E-2	4.614297E-3	4.394312E-3
								
10/19/2017  17:43:57.273543	1.101351E+0	1.217154E-2	7.001707E-3	1.093460E-2	3.777952E-3	3.523514E-3	5.256620E-3	1.415228E-3
10/19/2017  17:43:57.274543	1.141000E+0	8.820248E-3	5.200926E-3	3.996675E-3	1.692915E-4	1.514788E-2	3.461187E-3	3.402967E-3
10/19/2017  17:43:57.275543	1.431255E+0	6.255286E-3	2.806966E-3	7.169447E-3	9.565892E-3	4.461483E-3	8.829553E-3	3.799399E-4
10/19/2017  17:43:57.276543	1.483469E+0	6.710354E-3	2.355683E-3	1.284731E-2	7.994724E-4	3.264467E-3	5.342629E-5	3.559198E-4
10/19/2017  17:43:57.277543	2.116414E-1	1.146082E-2	5.122326E-4	7.792700E-3	5.301310E-3	2.235301E-3	2.295093E-4	2.490651E-3
10/19/2017  17:43:57.278543	2.855632E-1	7.226894E-3	3.923600E-3	3.840439E-3	3.365508E-4	2.956524E-3	3.700159E-4	4.001083E-4
10/19/2017  17:43:57.279543	6.648951E-1	9.297211E-4	1.710664E-3	1.212319E-2	4.371824E-3	2.272903E-3	4.793382E-3	3.054892E-4
10/19/2017  17:43:57.280543	5.165655E-1	6.586815E-4	3.543367E-3	5.059699E-3	3.760212E-3	1.697877E-3	1.298313E-3	2.231719E-4
10/19/2017  17:43:57.281543	6.250551E+0	2.575572E-3	3.934841E-3	8.670890E-3	1.378918E-2	3.378212E-3	5.592529E-3	1.063972E-2
10/19/2017  17:43:57.282543	2.664426E+0	5.038999E-4	4.954771E-4	2.974255E-3	7.375382E-3	1.188670E-4	6.973850E-3	3.635638E-3
10/19/2017  17:43:57.283543	4.696991E+0	7.044909E-3	4.461127E-3	1.647441E-2	2.144843E-2	4.396049E-3	6.039673E-4	1.162695E-2
10/19/2017  17:43:57.284543	1.812145E+0	3.663445E-3	7.085296E-3	1.250041E-2	4.473876E-3	7.670117E-3	1.862097E-3	4.731201E-3
10/19/2017  17:43:57.285543	1.293629E+0	2.562733E-3	6.520709E-3	2.583003E-3	5.804081E-3	3.424064E-3	2.912846E-3	3.127748E-3
10/19/2017  17:43:57.286543	3.138701E+0	4.844983E-3	7.434763E-3	1.119369E-2	2.132356E-3	9.106676E-3	8.897393E-3	4.320302E-3
10/19/2017  17:43:57.287543	2.025938E+0	3.498588E-3	5.178563E-3	9.815759E-4	2.776602E-3	2.346464E-3	2.715875E-4	1.516566E-3
10/19/2017  17:43:57.288543	1.866765E+0	1.058138E-2	7.597197E-3	1.059586E-3	6.795113E-3	8.358015E-3	1.748874E-3	7.836353E-3
10/19/2017  17:43:57.289543	2.648868E-1	3.526653E-3	1.430431E-2	5.379767E-3	3.797689E-4	1.143161E-2	5.533026E-3	7.390815E-3
10/19/2017  17:43:57.290543	7.444030E-1	7.078915E-3	5.310063E-3	1.037918E-2	6.449464E-3	5.709435E-3	1.103633E-2	5.054632E-3
10/19/2017  17:43:57.291543	2.652587E+0	6.878961E-4	4.514700E-3	4.790821E-4	4.057605E-3	1.270803E-3	1.306914E-3	7.688216E-3
10/19/2017  17:43:57.292543	1.714471E+0	6.110040E-3	4.847105E-3	2.440277E-3	2.767982E-3	2.058395E-3	1.234521E-2	1.431952E-3
10/19/2017  17:43:57.293543	2.833261E+0	4.390053E-3	9.104260E-3	2.360968E-3	9.134691E-3	4.437622E-3	3.326949E-4	7.441810E-3
10/19/2017  17:43:57.294543	1.897929E+0	5.281091E-3	7.798992E-3	2.280788E-3	8.110606E-6	3.853794E-3	6.174653E-3	3.805919E-3
10/19/2017  17:43:57.295543	2.331161E+0	7.283251E-3	1.325346E-2	6.517901E-3	4.224559E-3	3.169525E-3	2.380689E-3	1.176437E-2
10/19/2017  17:43:57.296543	3.975331E+0	1.263813E-3	2.784018E-3	7.172207E-3	5.916995E-3	2.762047E-3	6.292531E-3	2.470589E-3
10/19/2017  17:43:57.297543	1.795155E-1	5.204272E-3	9.749184E-4	1.209178E-2	2.138600E-3	4.821066E-4	1.899700E-4	1.046601E-2
10/19/2017  17:43:57.298543	2.765283E+0	1.316093E-3	1.234050E-2	5.915516E-3	2.850870E-3	7.499221E-3	2.068954E-3	5.851601E-3
10/19/2017  17:43:57.299543	5.242402E-2	8.044846E-3	4.877529E-3	1.401443E-2	1.991146E-3	1.007791E-2	2.861260E-3	6.556829E-3
10/19/2017  17:43:57.300543	2.543604E-1	1.476473E-3	2.878378E-3	4.033993E-3	9.541356E-3	2.828139E-3	1.949981E-3	1.878928E-3
10/19/2017  17:43:57.301543	6.292077E-1	3.328564E-3	6.781872E-3	7.617417E-3	2.079071E-3	4.719376E-3	1.178516E-3	7.482226E-4
10/19/2017  17:43:57.302543	1.668447E+0	4.152210E-3	6.931227E-3	5.994151E-3	8.215708E-3	1.340585E-3	4.849743E-3	1.036420E-2
10/19/2017  17:43:57.303543	2.020669E+0	5.023390E-3	1.965365E-3	6.931255E-3	7.207736E-3	7.601669E-3	7.473242E-4	5.856630E-3
10/19/2017  17:43:57.304543	4.470171E+0	5.399947E-3	4.022680E-3	7.806968E-3	7.156316E-3	3.621159E-3	1.478064E-4	4.326491E-3
10/19/2017  17:43:57.305543	2.434205E+0	4.050628E-3	1.190541E-2	5.069159E-3	8.393054E-3	2.955157E-3	7.327646E-3	8.570614E-4
								
10/19/2017  17:43:57.306543	2.951012E+0	1.436568E-2	5.321126E-3	1.447401E-2	4.094492E-3	6.251040E-3	1.427718E-3	4.772158E-3
10/19/2017  17:43:57.307543	2.437184E+0	1.126619E-3	6.771855E-3	4.156287E-3	5.667817E-3	1.746349E-3	1.468102E-3	3.457965E-3
10/19/2017  17:43:57.308543	7.134181E-1	5.815768E-3	7.543207E-3	8.556144E-4	5.606594E-4	1.028432E-2	1.462792E-3	9.266254E-3
10/19/2017  17:43:57.309543	1.605661E+0	4.657700E-3	6.325757E-3	5.856014E-4	9.372746E-3	5.579662E-3	1.868001E-2	6.388466E-3
10/19/2017  17:43:57.310543	2.368359E+0	2.836753E-3	1.177482E-3	2.504908E-3	4.180609E-3	6.673170E-3	6.479231E-3	6.563288E-3
10/19/2017  17:43:57.311543	6.278658E-1	9.190303E-3	1.298168E-2	4.897219E-3	2.934609E-3	1.074213E-2	7.079638E-3	8.760632E-3
10/19/2017  17:43:57.312543	6.819010E-2	1.709512E-4	9.767262E-3	1.385698E-3	8.923819E-3	5.254771E-3	7.898097E-3	1.714913E-7
10/19/2017  17:43:57.313543	5.624607E-1	2.023076E-3	4.578895E-3	3.353395E-3	4.589254E-3	7.459436E-4	1.036012E-3	1.971943E-3
10/19/2017  17:43:57.314543	1.962125E+0	8.004614E-4	8.272159E-3	2.272592E-3	1.195811E-2	7.325300E-4	6.152070E-3	1.038554E-3
10/19/2017  17:43:57.315543	2.924053E+0	6.333504E-4	4.099396E-3	5.122628E-3	4.943225E-3	7.179771E-3	2.447507E-3	7.500757E-3
10/19/2017  17:43:57.316543	3.425767E-1	3.841382E-3	1.253094E-3	7.041800E-3	8.267505E-3	1.009614E-2	6.788820E-3	5.451777E-3
10/19/2017  17:43:57.317543	1.581055E+0	6.888531E-3	7.900337E-3	6.159517E-3	1.636499E-3	4.810496E-4	4.160710E-3	5.857071E-4
10/19/2017  17:43:57.318543	3.364904E+0	6.364467E-3	3.173437E-3	1.109803E-2	3.265751E-3	8.648760E-3	5.413171E-3	2.760242E-3
10/19/2017  17:43:57.319543	2.595033E+0	2.686369E-3	4.558145E-3	9.616911E-3	6.427659E-3	4.592672E-3	6.865783E-3	4.205123E-3
10/19/2017  17:43:57.320543	7.610281E-1	4.397912E-3	3.270587E-3	1.830945E-3	2.457054E-3	5.279875E-3	4.045353E-3	3.591249E-3
10/19/2017  17:43:57.321543	6.846402E-1	5.820066E-3	4.416727E-3	1.362987E-3	4.181491E-3	9.658282E-4	7.423810E-3	6.058274E-3
10/19/2017  17:43:57.322543	1.606416E+0	6.437777E-3	1.479035E-3	9.828335E-3	8.606226E-3	9.767711E-3	3.431044E-3	6.233224E-3
10/19/2017  17:43:57.323543	5.474408E+0	4.228918E-3	3.544373E-3	6.604697E-3	1.679158E-4	8.078131E-3	4.625125E-3	2.608085E-3
10/19/2017  17:43:57.324543	4.336838E+0	9.522189E-4	3.730073E-3	4.065516E-4	1.143613E-2	1.036359E-3	9.838428E-3	4.594239E-3
10/19/2017  17:43:57.325543	8.643570E-1	3.588432E-3	1.154599E-4	3.359346E-3	4.313434E-4	7.571978E-3	3.768798E-4	1.356853E-2
10/19/2017  17:43:57.326543	2.446561E+0	2.348189E-3	2.544937E-3	1.189061E-2	4.634669E-3	5.336062E-3	2.164111E-3	4.264032E-3
10/19/2017  17:43:57.327543	1.677621E+0	3.463421E-3	1.087185E-2	6.733989E-3	5.537550E-3	7.231375E-4	3.963501E-4	8.363084E-3
10/19/2017  17:43:57.328543	4.765672E-1	2.672423E-4	8.872841E-4	2.720388E-3	3.953888E-3	5.059081E-3	2.199382E-3	2.040079E-4
10/19/2017  17:43:57.329543	8.490141E-2	1.380032E-2	2.833408E-3	3.076367E-4	8.205526E-3	2.850406E-3	9.578143E-3	5.162626E-3
10/19/2017  17:43:57.330543	2.399177E-1	3.522685E-3	2.229468E-4	4.653897E-3	2.878121E-3	1.949965E-3	3.945138E-3	1.069292E-2
10/19/2017  17:43:57.331543	7.708301E-1	8.353497E-3	2.677182E-4	7.541187E-3	4.234153E-3	9.578396E-3	2.710082E-3	9.214715E-4
10/19/2017  17:43:57.332543	6.921152E-2	7.874165E-3	6.779847E-3	8.352725E-4	5.818564E-3	4.467226E-3	6.950370E-3	3.692077E-3
10/19/2017  17:43:57.333543	6.316562E-1	7.990126E-3	1.260029E-2	8.389290E-3	2.342452E-3	1.673826E-2	6.479350E-4	4.659467E-3
10/19/2017  17:43:57.334543	5.510936E-1	6.144421E-3	4.367452E-3	6.933023E-3	3.775889E-3	1.114215E-3	1.770778E-3	7.783447E-4
10/19/2017  17:43:57.335543	7.369559E-1	2.395781E-3	1.809414E-3	3.977345E-3	2.859451E-4	1.823842E-2	8.770501E-4	2.203719E-3
10/19/2017  17:43:57.336543	2.154161E-2	9.044682E-3	2.482695E-4	9.518346E-3	6.382969E-3	1.132024E-2	4.894712E-3	3.056886E-3
10/19/2017  17:43:57.337543	2.157049E-1	1.740399E-3	4.973538E-4	8.530740E-3	3.940170E-3	2.401240E-3	1.087330E-3	3.443415E-3
10/19/2017  17:43:57.338543	3.803137E-1	1.443089E-2	3.228458E-3	1.033399E-2	1.754538E-2	2.977658E-3	1.099961E-3	1.165179E-2
								
10/19/2017  17:43:57.339543	1.117831E+0	5.998350E-3	2.938136E-3	4.003990E-3	6.690358E-3	1.106791E-2	1.721367E-3	1.666517E-3
10/19/2017  17:43:57.340543	9.007959E-3	9.013749E-3	4.792856E-3	3.081827E-3	4.334734E-3	7.352204E-3	2.769065E-3	8.322004E-3
10/19/2017  17:43:57.341543	8.082335E-1	2.167862E-3	1.240932E-2	2.816755E-3	1.936829E-3	5.166732E-3	6.321224E-4	6.558716E-3
10/19/2017  17:43:57.342543	2.842470E-1	2.855860E-3	8.607805E-3	1.131484E-2	1.074688E-2	1.170488E-3	9.564656E-3	9.335427E-3
10/19/2017  17:43:57.343543	6.674460E-2	2.018163E-3	3.933246E-3	8.303937E-3	1.481250E-3	3.558186E-4	2.629381E-3	6.583929E-3
10/19/2017  17:43:57.344543	3.970601E+0	1.304300E-3	6.091502E-3	2.897445E-3	7.727777E-3	1.108719E-2	4.649882E-3	2.164259E-2
10/19/2017  17:43:57.345543	5.573501E+0	7.036506E-4	2.093374E-3	2.154834E-2	5.456416E-3	7.060865E-3	1.106865E-3	4.347510E-3
10/19/2017  17:43:57.346543	1.484564E+0	2.059903E-4	9.371508E-3	9.434216E-3	1.740208E-3	6.117329E-3	8.884052E-4	3.459728E-3
10/19/2017  17:43:57.347543	4.371332E+0	4.118271E-3	1.144414E-4	3.323946E-3	1.005309E-3	1.318429E-2	9.319264E-3	5.961645E-3
10/19/2017  17:43:57.348543	8.269074E-1	2.220891E-4	2.675115E-3	1.151563E-3	5.727590E-3	6.101159E-3	4.147984E-3	4.813128E-3
10/19/2017  17:43:57.349543	5.821912E-1	1.128710E-2	4.189706E-3	4.394432E-3	6.997724E-3	8.953946E-3	8.452447E-3	5.892332E-3
10/19/2017  17:43:57.350543	1.610259E-1	3.327726E-4	8.395884E-3	2.544881E-3	1.473436E-3	1.097848E-2	2.082232E-3	4.398806E-3
10/19/2017  17:43:57.351543	3.056045E-1	2.192460E-3	2.312700E-3	5.606321E-3	1.028890E-3	5.410665E-3	2.570934E-3	7.811048E-3
10/19/2017  17:43:57.352543	3.165848E-1	9.074788E-4	9.230385E-4	4.814288E-4	6.723585E-4	2.436561E-3	2.858435E-3	3.273427E-3
10/19/2017  17:43:57.353543	2.019190E+0	9.640188E-4	1.096578E-3	3.176443E-3	3.925119E-4	3.632971E-3	4.509742E-3	8.822073E-3
10/19/2017  17:43:57.354543	5.054649E+0	7.457148E-3	3.374133E-3	1.599892E-2	2.342500E-3	1.082113E-2	3.122778E-3	6.583586E-3
10/19/2017  17:43:57.355543	4.593959E+0	1.610910E-2	1.584707E-3	9.662241E-3	1.150600E-2	5.645040E-3	4.484935E-3	2.231168E-3
10/19/2017  17:43:57.356543	1.762740E+0	4.353022E-3	5.748179E-3	1.846434E-3	7.095202E-4	1.130288E-2	1.021292E-3	1.100490E-3
10/19/2017  17:43:57.357543	4.598574E-2	2.620083E-3	8.627714E-3	5.031563E-3	9.517792E-3	7.596523E-4	4.935199E-3	2.330880E-3
10/19/2017  17:43:57.358543	7.880481E-2	3.123181E-3	4.820103E-3	1.101152E-3	1.860658E-3	5.116481E-3	5.435811E-3	3.440070E-3
10/19/2017  17:43:57.359543	5.114891E-1	7.546611E-3	8.194688E-4	1.210002E-3	7.793203E-3	1.555194E-3	4.037908E-3	3.194997E-3
10/19/2017  17:43:57.360543	6.149361E-1	8.497268E-3	6.991801E-3	7.344639E-3	3.470912E-3	3.240432E-3	5.789358E-3	5.093806E-3
10/19/2017  17:43:57.361543	2.533863E-1	2.375035E-3	1.266878E-2	6.355550E-3	1.017158E-2	6.408739E-3	3.455388E-4	8.834948E-3
10/19/2017  17:43:57.362543	1.465917E+0	6.528446E-3	1.816223E-3	5.588063E-3	4.333863E-3	6.371002E-3	4.756439E-3	1.181909E-2
10/19/2017  17:43:57.363543	1.753120E+0	6.025481E-4	3.529093E-3	7.360377E-3	1.032667E-2	4.142026E-3	7.390804E-3	8.930643E-3
10/19/2017  17:43:57.364543	2.108178E-1	5.848259E-3	8.362580E-3	6.015794E-3	1.231773E-3	7.265939E-4	5.784001E-3	2.184995E-3
10/19/2017  17:43:57.365543	3.090021E-1	2.739220E-3	1.417762E-3	8.347275E-3	1.140386E-3	3.936321E-3	2.065561E-3	6.973151E-4
10/19/2017  17:43:57.366543	3.871430E+0	1.817034E-4	5.833627E-3	3.342851E-3	7.530015E-3	9.276549E-3	7.158664E-4	2.734503E-3
10/19/2017  17:43:57.367543	8.608213E+0	5.038308E-4	2.152982E-3	1.052710E-2	1.199524E-3	2.438516E-3	5.412043E-4	1.902528E-3
10/19/2017  17:43:57.368543	6.369793E+0	1.583298E-2	3.004384E-3	2.613020E-2	3.119134E-3	8.642443E-3	3.913113E-3	1.189826E-3
10/19/2017  17:43:57.369543	3.119719E+0	8.417989E-3	6.587973E-3	5.242247E-4	6.451032E-3	1.936725E-3	6.025229E-3	1.020538E-2
10/19/2017  17:43:57.370543	2.055193E-1	1.791706E-3	8.423895E-3	1.889258E-3	8.608628E-3	8.270546E-4	2.131471E-3	3.627201E-3
10/19/2017  17:43:57.371543	4.595924E+0	7.354145E-3	2.741506E-3	1.215161E-2	1.760195E-3	7.104560E-3	2.928573E-3	2.623245E-3
								
10/19/2017  17:43:57.372543	1.072586E-1	3.704100E-3	6.337118E-3	1.637031E-3	1.095915E-3	3.820578E-3	3.628807E-5	3.920460E-3
10/19/2017  17:43:57.373543	2.716072E+0	3.565701E-3	2.167828E-5	3.946643E-3	5.542384E-3	5.741519E-3	8.611864E-3	6.151941E-3
10/19/2017  17:43:57.374543	2.512127E-1	8.585313E-3	4.006209E-3	7.884840E-3	2.934883E-3	6.105905E-4	2.845237E-3	6.274544E-3
10/19/2017  17:43:57.375543	1.256034E+0	1.225815E-3	2.358607E-3	8.276297E-3	1.109339E-2	8.721876E-4	4.531085E-3	4.526433E-3
10/19/2017  17:43:57.376543	2.268628E-1	1.480852E-2	5.475294E-3	6.896562E-3	5.635516E-3	3.210700E-3	9.096614E-4	8.180211E-4
10/19/2017  17:43:57.377543	7.676673E-1	6.241537E-3	2.282054E-3	4.496434E-3	2.922049E-3	2.611993E-3	1.707409E-3	6.196085E-3
10/19/2017  17:43:57.378543	1.100719E+0	5.273014E-4	4.399050E-3	4.648223E-3	1.818287E-3	4.230877E-3	3.531394E-3	2.348392E-3
10/19/2017  17:43:57.379543	2.739063E-1	9.760234E-3	3.205763E-4	8.515067E-3	3.558052E-3	7.356581E-3	1.783270E-3	2.685238E-3
10/19/2017  17:43:57.380543	3.369778E+0	1.261426E-3	7.010057E-3	1.746474E-3	1.813281E-2	6.042199E-4	5.524146E-3	2.451485E-3
10/19/2017  17:43:57.381543	8.992847E-1	4.755786E-4	7.694457E-3	6.150406E-3	3.305593E-4	1.814428E-5	6.865612E-4	2.592997E-3
10/19/2017  17:43:57.382543	1.309093E+0	6.620653E-3	3.531190E-3	5.149358E-3	3.664143E-3	3.797154E-3	8.424339E-4	9.007908E-3
10/19/2017  17:43:57.383543	4.036651E+0	1.504668E-3	2.522594E-3	1.504709E-2	4.161739E-3	4.488832E-3	5.527615E-3	8.965733E-3
10/19/2017  17:43:57.384543	4.037224E+0	5.117790E-3	3.816652E-3	1.093123E-4	6.555264E-3	5.998150E-3	7.441909E-3	4.236783E-3
10/19/2017  17:43:57.385543	1.787659E+0	5.489852E-3	4.104748E-3	2.398748E-3	9.706269E-3	1.041218E-2	1.372021E-3	8.014261E-3
10/19/2017  17:43:57.386543	1.301417E+0	1.289719E-2	1.137458E-3	1.116417E-2	3.586124E-3	2.262940E-3	5.198855E-3	1.367237E-3
10/19/2017  17:43:57.387543	3.754678E+0	1.043993E-2	5.031437E-4	1.418786E-2	4.334787E-3	1.890680E-2	9.756303E-3	7.808080E-3
10/19/2017  17:43:57.388543	2.520890E+0	9.519837E-3	1.297651E-2	1.582855E-3	7.690219E-3	3.115447E-3	4.990624E-3	1.100687E-3
10/19/2017  17:43:57.389543	2.375100E+0	6.705787E-3	1.653552E-3	1.080228E-3	5.403478E-3	4.071166E-3	1.594406E-2	8.119226E-3
10/19/2017  17:43:57.390543	6.610196E+0	8.356653E-4	1.427761E-2	7.264954E-3	1.617593E-3	1.253672E-2	6.714462E-5	2.874829E-3
10/19/2017  17:43:57.391543	4.737403E+0	3.421393E-3	7.550996E-3	7.041050E-3	5.506609E-3	6.639304E-3	1.788442E-2	1.319499E-4
10/19/2017  17:43:57.392543	6.692057E-1	8.792474E-3	5.686718E-3	2.180036E-3	4.774431E-3	1.091664E-2	2.370056E-3	6.610546E-3
10/19/2017  17:43:57.393543	4.280892E-1	6.390208E-3	4.538403E-3	7.979966E-3	1.010246E-3	1.516919E-3	3.925342E-3	4.150278E-3
10/19/2017  17:43:57.394543	7.084504E-1	6.459054E-3	8.791049E-4	1.715874E-2	2.957733E-3	3.336936E-3	3.749682E-3	9.566505E-3
10/19/2017  17:43:57.395543	6.375742E-1	1.476802E-2	3.367570E-4	3.554771E-3	4.446895E-3	1.968514E-3	2.613302E-3	8.569686E-3
10/19/2017  17:43:57.396543	4.886086E-1	3.061974E-3	1.001730E-4	6.431130E-3	3.096842E-3	3.528175E-3	6.987518E-3	6.137762E-3
10/19/2017  17:43:57.397543	1.490940E+0	1.584466E-2	2.602474E-3	4.708370E-3	2.346457E-3	2.306371E-3	3.657964E-3	8.863938E-3
10/19/2017  17:43:57.398543	2.160428E+0	1.532224E-3	2.152830E-3	3.228243E-3	6.161099E-3	8.762932E-4	4.662747E-3	2.002406E-3
10/19/2017  17:43:57.399543	2.050300E+0	7.477563E-3	3.908013E-3	4.164095E-3	4.281753E-3	7.488183E-3	5.654123E-3	5.198332E-3
10/19/2017  17:43:57.400543	2.999689E+0	3.734581E-3	5.800603E-3	4.969247E-3	5.962071E-3	5.336673E-3	4.229234E-3	4.961771E-3
10/19/2017  17:43:57.401543	2.112474E+0	9.526920E-3	6.921393E-3	1.414647E-2	1.310108E-2	5.125692E-3	1.288557E-3	7.727949E-3
10/19/2017  17:43:57.402543	8.835722E-1	3.318041E-4	3.667022E-3	7.297226E-3	3.999927E-3	4.820805E-3	3.440194E-3	7.935342E-3
10/19/2017  17:43:57.403543	4.177499E-1	1.985103E-3	3.244831E-4	8.073607E-4	7.497166E-3	1.216355E-3	1.100884E-2	9.179547E-3
10/19/2017  17:43:57.404543	3.221321E-1	7.234735E-3	2.104497E-3	1.255113E-2	3.179088E-3	3.092833E-3	5.649084E-3	3.774197E-3
								
10/19/2017  17:43:57.405543	2.687579E-1	1.575941E-3	5.919770E-3	2.710434E-5	6.390208E-3	1.125515E-2	6.632596E-3	1.546789E-2
10/19/2017  17:43:57.406543	5.413750E-1	1.218388E-2	8.896362E-3	2.856902E-2	6.784258E-3	4.811267E-3	5.896749E-3	2.753501E-3
10/19/2017  17:43:57.407543	7.081220E-1	2.331959E-3	2.432353E-3	1.485455E-2	3.465894E-3	5.354772E-3	6.941507E-3	6.520966E-3
10/19/2017  17:43:57.408543	1.388094E-1	1.914837E-3	1.843110E-3	6.598524E-3	6.315115E-3	7.483327E-3	9.402069E-3	2.224289E-3
10/19/2017  17:43:57.409543	1.146599E+0	9.241837E-3	8.300240E-4	1.807196E-3	1.146338E-2	1.301156E-3	4.388343E-3	4.124354E-3
10/19/2017  17:43:57.410543	5.512013E-1	4.775478E-3	1.595215E-3	3.015161E-3	2.168144E-3	3.199439E-3	5.263954E-3	3.153934E-3
10/19/2017  17:43:57.411543	2.339020E+0	1.749687E-3	1.185875E-2	2.014879E-3	1.139352E-3	6.672520E-3	1.018076E-3	1.450415E-4
10/19/2017  17:43:57.412543	9.595373E-1	1.689364E-3	2.767757E-3	5.303477E-3	7.838884E-3	4.845334E-3	5.549007E-3	1.153855E-4
10/19/2017  17:43:57.413543	2.241835E+0	1.023546E-2	2.406346E-3	2.613122E-3	2.818286E-3	9.663562E-3	2.189087E-3	4.245270E-3
10/19/2017  17:43:57.414543	1.762092E+0	5.133562E-3	8.537579E-3	6.942506E-3	1.693024E-3	4.068199E-3	5.464743E-3	1.435193E-3
10/19/2017  17:43:57.415543	2.647524E+0	3.119231E-3	3.984185E-4	4.867186E-3	7.813049E-4	1.160978E-2	3.271654E-3	9.772180E-3
10/19/2017  17:43:57.416543	2.180937E-1	3.999237E-3	2.513549E-3	5.288020E-3	6.431501E-3	2.955181E-3	3.000951E-3	4.130000E-3
10/19/2017  17:43:57.417543	4.601224E+0	2.688267E-4	9.022406E-3	3.338176E-3	3.798496E-3	2.568497E-3	1.595765E-3	7.517048E-3
10/19/2017  17:43:57.418543	3.187276E+0	6.154749E-3	1.766529E-3	2.966993E-3	1.065875E-2	6.415344E-3	1.690820E-3	3.154554E-3
10/19/2017  17:43:57.419543	2.299534E+0	7.224500E-3	3.593794E-3	6.924317E-3	5.428332E-3	6.895804E-3	8.345592E-3	4.182572E-3
10/19/2017  17:43:57.420543	1.593442E+0	1.483686E-3	5.182407E-3	1.163527E-2	5.118347E-3	5.428635E-3	1.622090E-4	4.710484E-3
10/19/2017  17:43:57.421543	1.806446E+0	5.967506E-3	1.805930E-3	9.290415E-3	8.193492E-3	2.318399E-3	2.053322E-4	1.243446E-2
10/19/2017  17:43:57.422543	1.012738E+0	1.327490E-2	3.634050E-3	1.950643E-4	9.423782E-3	1.285244E-3	4.787454E-3	1.128103E-2
10/19/2017  17:43:57.423543	1.327028E+0	1.504816E-3	4.794546E-3	1.283395E-2	2.180467E-3	8.189120E-3	7.866507E-3	5.203720E-3
10/19/2017  17:43:57.424543	2.679201E-1	5.633152E-3	7.554904E-3	2.174394E-3	5.346757E-3	1.706068E-3	5.410492E-3	8.240997E-3
10/19/2017  17:43:57.425543	2.636380E-2	4.585609E-3	9.835450E-4	6.498641E-3	1.910381E-3	9.513360E-3	1.811787E-3	5.045756E-3
10/19/2017  17:43:57.426543	5.064036E-1	9.228231E-4	1.650009E-3	1.567260E-3	4.947964E-3	4.450547E-3	7.311782E-3	5.737753E-3
10/19/2017  17:43:57.427543	3.516378E-1	2.530058E-3	1.326849E-3	1.295337E-2	1.198505E-3	1.217131E-2	8.068978E-3	5.354679E-4
10/19/2017  17:43:57.428543	1.683118E-1	7.260608E-3	7.594876E-3	7.767660E-3	3.453976E-3	2.055394E-3	3.705909E-3	7.560244E-4
10/19/2017  17:43:57.429543	3.811369E-2	1.056113E-3	1.472227E-3	3.710456E-3	4.960023E-3	7.518696E-3	1.749507E-3	1.233287E-3
10/19/2017  17:43:57.430543	7.036405E-2	3.445658E-3	1.444987E-2	5.853434E-3	1.513004E-3	5.332086E-3	7.744299E-3	8.231595E-3
10/19/2017  17:43:57.431543	3.352082E-3	6.441329E-3	7.099879E-3	5.977141E-3	5.462588E-3	7.962185E-4	1.273210E-3	1.751082E-3
10/19/2017  17:43:57.432543	4.424710E-2	3.262840E-4	3.614596E-3	7.276174E-4	4.931997E-3	1.168404E-2	1.282212E-3	7.298605E-3
10/19/2017  17:43:57.433543	7.617356E-1	1.056769E-2	2.518676E-3	5.573064E-3	1.378285E-3	2.588578E-3	5.197875E-3	1.656505E-3
10/19/2017  17:43:57.434543	3.170720E+0	5.838465E-3	9.203340E-3	1.955666E-3	1.423100E-2	6.672643E-3	9.850120E-3	1.022510E-2
10/19/2017  17:43:57.435543	5.151252E-1	4.463862E-3	6.427619E-3	5.707349E-3	3.156353E-3	6.362770E-5	5.176017E-3	9.963344E-3
10/19/2017  17:43:57.436543	2.707285E+0	3.195000E-3	4.533002E-3	6.666359E-3	1.151544E-2	1.552457E-2	4.883150E-3	4.600235E-3
10/19/2017  17:43:57.437543	1.433743E+0	1.950525E-2	3.611801E-3	9.207755E-3	1.077884E-2	4.450072E-3	5.376127E-3	8.152231E-3
								
10/19/2017  17:43:57.438543	4.895007E+0	6.086189E-3	1.518941E-3	4.546322E-3	3.228335E-3	1.612359E-3	6.057602E-3	1.889459E-3
10/19/2017  17:43:57.439543	2.350801E+0	2.706982E-3	1.348875E-3	3.491790E-3	8.854569E-3	1.638343E-3	4.528022E-3	2.687273E-3
10/19/2017  17:43:57.440543	1.388537E+0	6.668880E-3	9.538235E-4	6.930733E-3	2.655330E-3	3.788173E-3	1.167252E-3	7.112677E-3
10/19/2017  17:43:57.441543	5.340782E+0	1.552367E-3	2.554630E-3	1.249612E-2	2.475996E-5	8.826837E-4	1.424883E-2	5.218327E-3
10/19/2017  17:43:57.442543	2.199913E+0	9.881716E-3	5.728007E-3	6.435957E-3	8.965764E-3	5.254858E-3	9.861188E-3	5.035943E-3
10/19/2017  17:43:57.443543	1.132870E+0	1.769974E-3	1.388652E-2	4.579104E-4	4.171430E-3	6.932290E-3	7.391289E-3	9.378676E-3
10/19/2017  17:43:57.444543	1.161025E+0	1.465930E-3	3.638261E-3	7.652765E-3	5.993748E-3	6.217894E-3	1.197954E-2	4.448010E-3
10/19/2017  17:43:57.445543	2.061729E+0	9.622203E-4	3.921997E-3	4.008574E-4	8.404638E-5	1.846030E-3	4.849731E-3	5.607348E-3
10/19/2017  17:43:57.446543	1.547208E+0	4.915980E-4	8.075758E-3	3.954083E-3	6.321252E-3	5.394481E-3	1.674674E-3	6.743061E-3
10/19/2017  17:43:57.447543	5.330557E-1	8.523468E-3	1.198854E-3	1.318946E-2	1.102491E-2	9.629321E-4	6.658851E-4	1.883098E-4
10/19/2017  17:43:57.448543	1.261664E+0	6.958859E-3	8.175255E-3	5.254959E-3	3.556476E-3	1.632933E-2	2.299526E-3	6.741984E-3
10/19/2017  17:43:57.449543	3.261020E-1	5.187140E-4	2.691879E-3	1.194784E-3	8.483947E-3	3.573464E-3	7.446272E-3	6.611494E-4
10/19/2017  17:43:57.450543	1.195072E+0	8.474402E-3	2.591212E-3	3.679293E-3	2.710439E-3	2.653485E-3	7.437593E-3	5.866860E-4
10/19/2017  17:43:57.451543	4.540085E+0	2.708701E-3	1.529270E-2	7.506243E-3	2.004341E-3	2.434653E-3	8.098422E-3	2.679209E-3
10/19/2017  17:43:57.452543	5.558284E+0	6.332696E-3	3.653124E-3	1.209999E-2	7.246762E-3	5.032108E-4	1.029831E-2	2.463977E-4
10/19/2017  17:43:57.453543	1.413762E-2	4.304815E-3	2.443269E-2	1.483055E-2	3.749992E-3	4.554901E-4	1.559882E-3	4.497007E-3
10/19/2017  17:43:57.454543	1.372942E+0	9.833912E-4	4.718701E-3	1.421021E-2	7.005187E-4	8.215895E-3	5.754559E-3	9.930522E-3
10/19/2017  17:43:57.455543	6.776282E-1	5.771100E-3	9.693295E-3	1.511311E-2	1.512229E-3	3.252142E-3	6.562577E-3	2.595192E-3
10/19/2017  17:43:57.456543	3.364249E+0	1.725948E-3	4.499107E-3	1.514433E-2	5.635577E-3	9.169098E-3	8.501293E-6	9.306708E-3
10/19/2017  17:43:57.457543	2.011793E+0	3.450374E-3	8.124651E-3	2.680873E-3	6.203742E-3	2.634841E-3	6.946591E-3	1.928200E-4
10/19/2017  17:43:57.458543	6.116928E+0	7.042200E-3	4.039197E-4	6.809796E-3	1.099900E-2	1.749453E-6	3.028966E-3	1.070219E-2
10/19/2017  17:43:57.459543	6.158561E+0	6.720835E-4	2.129439E-3	1.599149E-2	5.578468E-3	2.442504E-3	2.072094E-3	1.387194E-3
10/19/2017  17:43:57.460543	4.502203E+0	1.802901E-3	4.508706E-4	1.105852E-2	5.718930E-3	2.063151E-4	9.468212E-3	7.905457E-3
10/19/2017  17:43:57.461543	1.938998E+0	5.675279E-3	4.438295E-3	3.870825E-3	5.315300E-3	6.404405E-3	4.236428E-3	2.856287E-3
10/19/2017  17:43:57.462543	3.894956E-1	4.321504E-4	5.872095E-3	5.889484E-3	2.071948E-3	2.410453E-3	5.496169E-3	1.111907E-2
10/19/2017  17:43:57.463543	6.179587E-1	2.663566E-3	8.481133E-5	1.497109E-3	3.576069E-3	8.687671E-3	2.870626E-3	9.262992E-4
10/19/2017  17:43:57.464543	5.225192E-1	2.321143E-3	2.374837E-4	6.278919E-3	5.366174E-3	6.600309E-3	4.471831E-3	1.174881E-2
10/19/2017  17:43:57.465543	6.104639E+0	4.994563E-3	3.979924E-3	1.812495E-2	2.212327E-3	2.093935E-5	1.405914E-2	9.051210E-3
10/19/2017  17:43:57.466543	4.873077E+0	1.398143E-3	6.134620E-3	8.542464E-3	9.769219E-3	2.587437E-3	1.292158E-3	4.452517E-3
10/19/2017  17:43:57.467543	1.926162E+0	5.586723E-3	1.830097E-4	1.176722E-2	2.812033E-3	2.104641E-3	1.018891E-2	1.126708E-3
10/19/2017  17:43:57.468543	2.401650E+0	9.060661E-3	2.002754E-4	6.499710E-3	8.834272E-3	3.272161E-3	5.411043E-3	7.686148E-4
10/19/2017  17:43:57.469543	2.391833E+0	1.907922E-3	6.671533E-3	4.185541E-3	9.144053E-3	9.173167E-3	3.054884E-3	6.940343E-3
10/19/2017  17:43:57.470543	6.933984E+0	1.200252E-2	1.960476E-3	1.718582E-2	6.514494E-3	6.432200E-3	4.730242E-3	8.389740E-3
								
10/19/2017  17:43:57.471543	5.049776E+0	9.916281E-5	3.805144E-3	1.022706E-2	6.539375E-3	4.200955E-3	5.048993E-3	4.675763E-3
10/19/2017  17:43:57.472543	2.300026E+0	4.496989E-3	1.444879E-2	6.066419E-3	5.381271E-4	5.178498E-3	7.582012E-3	5.578144E-3
10/19/2017  17:43:57.473543	4.225318E+0	7.655126E-3	3.361444E-3	1.106092E-2	3.773943E-3	7.337685E-3	3.075449E-3	2.289902E-4
10/19/2017  17:43:57.474543	2.874225E+0	1.219162E-3	9.632406E-3	1.413458E-2	4.155067E-3	9.563868E-3	2.344770E-3	2.082609E-3
10/19/2017  17:43:57.475543	4.408647E+0	1.188758E-2	8.040699E-4	5.056669E-4	3.265445E-3	2.232113E-3	2.483888E-3	1.494885E-3
10/19/2017  17:43:57.476543	1.937446E+0	4.132235E-4	3.085334E-3	1.591775E-2	2.403385E-4	8.488256E-3	2.791793E-3	7.472470E-3
10/19/2017  17:43:57.477543	2.262456E+0	1.229798E-2	4.614221E-3	1.412772E-2	1.578714E-2	3.469691E-4	2.162112E-3	1.544855E-3
10/19/2017  17:43:57.478543	1.741827E+0	2.922762E-3	9.637734E-4	7.568023E-4	2.473967E-3	1.925498E-3	3.466565E-3	3.690374E-3
10/19/2017  17:43:57.479543	2.425514E-1	1.167657E-2	1.547242E-3	1.506722E-3	1.590010E-2	8.655866E-4	8.624488E-5	2.939001E-3
10/19/2017  17:43:57.480543	5.367732E-2	4.551777E-3	9.764798E-3	7.753068E-3	6.226640E-3	7.932065E-3	3.807233E-3	4.440081E-3
10/19/2017  17:43:57.481543	3.813470E-1	1.397350E-3	8.546225E-3	1.050882E-3	2.635592E-4	3.409411E-3	1.301763E-2	5.472756E-3
10/19/2017  17:43:57.482543	1.793438E+0	9.251126E-4	6.247076E-3	5.612417E-3	1.862083E-3	4.997249E-3	8.137496E-4	2.756401E-3
10/19/2017  17:43:57.483543	2.034860E+0	3.846555E-4	2.177673E-3	6.669530E-4	3.286950E-3	7.001477E-3	2.762460E-3	1.935770E-2
10/19/2017  17:43:57.484543	7.157078E-2	8.670115E-3	4.801246E-3	2.030745E-2	6.293135E-3	8.470582E-3	1.855326E-3	4.153164E-3
10/19/2017  17:43:57.485543	5.268168E+0	2.480628E-3	3.371896E-3	3.224659E-3	9.195321E-3	2.321372E-3	7.551029E-3	5.853499E-3
10/19/2017  17:43:57.486543	6.362833E+0	1.779638E-3	2.645905E-3	2.793235E-3	1.661504E-3	1.211104E-2	3.257629E-3	1.769635E-3
10/19/2017  17:43:57.487543	4.737813E+0	1.174632E-2	1.094472E-2	8.880888E-3	7.111809E-4	3.047777E-3	2.239993E-3	1.013984E-2
10/19/2017  17:43:57.488543	2.216174E+0	6.736957E-4	1.003717E-2	2.077122E-3	8.702094E-3	1.390926E-2	1.373113E-2	1.012038E-3
10/19/2017  17:43:57.489543	5.810770E-2	1.011850E-3	9.592822E-4	3.562533E-3	4.025191E-5	6.917017E-3	5.599615E-3	3.439613E-3
10/19/2017  17:43:57.490543	8.227314E-1	7.363974E-3	8.677998E-4	1.066684E-2	1.998513E-3	1.082495E-2	1.279574E-2	8.635693E-3
10/19/2017  17:43:57.491543	4.852311E+0	2.131184E-3	3.551900E-3	9.785150E-4	7.512011E-3	5.864447E-3	8.533959E-3	3.338751E-4
10/19/2017  17:43:57.492543	5.411310E+0	6.804297E-3	8.097665E-5	4.115172E-4	3.296705E-3	6.615041E-3	1.964513E-3	1.840285E-3
10/19/2017  17:43:57.493543	3.600982E+0	3.458674E-3	1.878281E-3	1.075281E-2	8.775298E-3	8.443754E-3	6.763643E-4	3.176705E-3
10/19/2017  17:43:57.494543	5.446662E-1	1.389949E-2	3.416929E-3	9.004276E-3	7.169541E-3	5.391693E-4	2.527328E-3	2.346424E-3
10/19/2017  17:43:57.495543	2.275606E+0	3.531441E-3	6.149302E-4	1.437576E-2	1.135357E-3	1.348552E-2	1.558999E-3	6.983380E-3
10/19/2017  17:43:57.496543	4.058337E+0	1.706330E-2	1.417623E-3	9.045038E-3	3.760022E-3	1.019213E-2	7.225479E-3	4.079960E-4
10/19/2017  17:43:57.497543	3.573387E+0	3.438977E-3	7.996725E-3	1.348303E-2	7.109458E-3	1.282843E-3	4.189109E-3	2.224484E-3
10/19/2017  17:43:57.498543	3.525415E-1	1.376581E-2	3.609408E-3	9.392171E-4	5.126278E-4	5.180354E-3	3.652269E-3	2.630655E-4
10/19/2017  17:43:57.499543	3.755463E+0	1.011540E-3	1.900995E-3	6.006167E-3	2.142924E-3	3.045186E-3	3.151574E-3	2.008131E-3
10/19/2017  17:43:57.500543	3.496117E+0	8.365641E-4	7.144306E-3	1.084821E-2	8.328816E-3	4.515323E-3	7.001674E-3	5.501942E-3
10/19/2017  17:43:57.501543	2.036821E+0	3.621970E-3	2.484311E-3	9.487692E-3	4.884718E-3	1.037325E-3	5.155110E-3	4.214759E-3
10/19/2017  17:43:57.502543	2.734232E+0	4.157025E-3	5.373914E-3	4.971566E-3	5.500970E-3	6.187432E-4	1.422534E-3	1.200091E-2
10/19/2017  17:43:57.503543	6.594235E+0	1.194466E-3	5.390532E-5	4.449872E-3	5.649810E-3	4.059021E-3	2.960385E-3	2.809404E-3
								
10/19/2017  17:43:57.504543	4.724438E+0	7.124338E-3	5.987552E-4	9.009471E-3	5.389824E-3	2.948211E-3	2.577811E-3	1.339617E-2
10/19/2017  17:43:57.505543	4.183629E-1	1.930715E-3	1.022816E-3	5.571571E-3	2.345401E-3	2.293246E-3	8.643769E-3	7.638112E-3
10/19/2017  17:43:57.506543	1.106400E+0	1.273835E-2	1.339328E-3	9.439847E-3	4.221974E-3	8.109985E-3	3.150736E-4	1.319432E-3
10/19/2017  17:43:57.507543	8.545257E-1	5.936238E-3	1.560915E-3	1.618958E-2	6.454844E-3	1.185249E-2	1.879134E-3	5.569810E-3
10/19/2017  17:43:57.508543	1.122598E+0	6.140926E-3	6.018638E-3	3.047533E-3	7.417606E-3	4.512420E-3	5.525704E-3	1.904319E-3
10/19/2017  17:43:57.509543	1.475750E+0	1.130519E-2	4.667808E-3	2.067004E-3	5.641109E-3	3.123410E-3	1.154218E-2	1.325117E-3
10/19/2017  17:43:57.510543	1.795128E+0	1.796505E-3	2.026167E-2	9.272526E-4	2.179763E-4	4.108683E-3	1.731784E-3	8.276060E-4
10/19/2017  17:43:57.511543	1.014610E-1	5.124986E-3	8.119585E-3	1.171897E-2	2.269100E-3	4.052289E-3	3.274533E-3	1.752916E-3
10/19/2017  17:43:57.512543	2.095779E+0	3.091739E-3	1.529789E-2	2.639394E-3	3.643591E-3	5.474207E-3	2.751152E-4	7.872455E-3
10/19/2017  17:43:57.513543	1.339844E+0	2.503987E-4	2.513119E-3	2.061766E-3	2.035487E-3	1.959917E-3	6.199257E-3	5.346034E-3
10/19/2017  17:43:57.514543	4.000825E+0	1.794738E-3	3.411896E-4	1.548005E-3	3.880978E-3	4.962306E-3	4.554508E-3	1.245839E-2
10/19/2017  17:43:57.515543	5.282624E+0	3.169069E-3	8.397222E-3	7.575440E-3	2.868566E-3	1.096623E-3	5.646419E-3	4.618225E-3
10/19/2017  17:43:57.516543	2.008479E+0	1.112292E-2	8.544275E-4	9.373039E-3	1.992944E-3	1.191498E-2	2.446548E-3	1.244299E-2
10/19/2017  17:43:57.517543	1.412462E+0	1.485723E-3	9.694933E-3	3.682447E-3	3.083410E-3	2.675238E-4	3.841371E-3	4.055344E-3
10/19/2017  17:43:57.518543	9.545216E-1	7.697199E-3	5.367563E-4	1.581146E-2	2.031261E-3	4.152216E-4	3.356942E-4	7.106093E-3
10/19/2017  17:43:57.519543	5.513184E-1	3.306828E-3	8.221881E-3	7.602883E-3	1.857552E-2	5.261926E-4	4.389618E-3	8.323550E-3
10/19/2017  17:43:57.520543	7.153040E-1	8.922177E-3	1.004265E-3	2.940142E-3	7.221886E-3	3.712042E-3	5.452905E-3	3.461201E-4
10/19/2017  17:43:57.521543	1.448955E+0	4.736214E-3	5.496229E-3	9.072612E-3	1.258428E-2	8.557381E-5	1.652035E-3	2.240854E-3
10/19/2017  17:43:57.522543	2.272799E+0	3.594696E-3	1.167644E-4	6.517070E-3	3.541476E-3	6.888046E-3	3.138031E-3	2.993481E-3
10/19/2017  17:43:57.523543	5.373496E-1	8.165944E-3	4.118541E-3	8.604165E-3	2.032216E-4	9.462298E-3	6.753054E-3	8.801835E-3
10/19/2017  17:43:57.524543	8.470592E-1	1.039016E-3	1.051085E-2	8.312513E-3	7.272523E-3	2.076937E-3	4.955405E-3	6.853859E-3
10/19/2017  17:43:57.525543	3.526288E-1	9.823569E-3	3.162503E-3	5.258812E-3	3.414567E-3	5.995721E-3	5.199940E-3	8.079567E-3
10/19/2017  17:43:57.526543	2.264964E+0	1.545692E-3	1.135030E-4	1.542798E-2	1.664882E-3	4.231385E-3	2.828123E-3	1.176049E-3
10/19/2017  17:43:57.527543	3.582542E+0	5.335575E-3	1.112946E-2	9.320424E-3	3.423761E-3	3.724639E-3	4.164885E-3	6.043868E-3
10/19/2017  17:43:57.528543	2.279823E+0	7.312766E-3	5.206044E-3	1.597448E-2	2.613607E-3	6.651906E-4	4.922599E-3	2.358733E-3
10/19/2017  17:43:57.529543	2.460801E+0	1.195688E-2	5.355513E-4	2.761722E-3	6.234622E-3	5.995636E-4	3.422885E-3	4.708496E-3
10/19/2017  17:43:57.530543	1.225295E+0	4.967918E-3	4.640305E-3	4.276590E-4	4.204437E-3	2.689776E-3	4.998089E-3	1.229017E-3
10/19/2017  17:43:57.531543	3.479634E+0	2.453537E-3	3.046948E-3	1.577893E-3	6.153256E-3	6.228849E-3	1.609677E-3	3.314102E-3
10/19/2017  17:43:57.532543	2.442288E+0	1.164388E-3	2.593763E-3	1.414180E-3	4.720173E-3	1.994173E-3	3.419775E-3	3.954413E-3
10/19/2017  17:43:57.533543	1.617973E-1	4.187937E-3	2.253865E-3	3.549232E-3	3.496805E-3	1.197910E-2	1.909948E-3	6.122180E-3
10/19/2017  17:43:57.534543	1.095321E+0	2.300680E-2	6.253147E-3	3.680041E-3	6.190893E-3	2.235185E-3	2.964373E-3	4.475886E-3
10/19/2017  17:43:57.535543	6.303666E-2	9.838306E-3	1.942076E-3	2.124546E-3	2.278544E-3	1.236686E-2	1.451851E-4	5.557679E-3
10/19/2017  17:43:57.536543	2.096406E+0	1.148955E-2	5.205731E-3	2.297935E-4	1.804534E-3	6.840739E-3	6.709065E-3	6.893114E-3
								
10/19/2017  17:43:57.537543	9.173791E-1	5.120782E-3	7.946737E-3	2.886025E-4	1.396483E-3	3.131677E-3	8.289703E-3	6.895536E-3
10/19/2017  17:43:57.538543	9.066450E-1	2.563327E-3	8.806440E-4	1.365371E-2	3.278954E-3	2.500956E-3	1.440091E-3	6.412576E-3
10/19/2017  17:43:57.539543	3.184587E+0	7.144423E-3	4.304761E-3	9.738798E-3	1.069261E-5	6.261982E-3	3.585542E-3	1.523145E-3
10/19/2017  17:43:57.540543	4.469302E+0	1.300620E-3	7.450904E-4	8.436239E-3	1.970929E-2	8.592653E-3	5.881669E-3	7.979723E-3
10/19/2017  17:43:57.541543	1.766068E+0	3.460835E-3	1.081772E-2	8.181673E-3	8.143659E-3	2.691003E-3	2.707354E-3	6.308415E-4
10/19/2017  17:43:57.542543	6.380605E-1	4.554998E-3	2.923850E-3	5.366329E-3	4.070697E-3	6.384591E-3	8.454385E-3	6.158108E-3
10/19/2017  17:43:57.543543	2.571342E+0	7.852436E-3	1.875139E-3	2.113697E-4	3.138515E-3	1.070900E-4	7.686618E-3	6.441632E-3
10/19/2017  17:43:57.544543	1.717798E+0	8.127662E-4	1.145816E-3	6.610105E-3	4.494964E-3	4.192208E-3	8.224649E-3	1.742617E-2
10/19/2017  17:43:57.545543	3.154604E+0	2.680865E-3	3.290548E-3	1.987143E-2	3.398083E-3	6.046339E-3	4.685874E-3	7.164618E-4
10/19/2017  17:43:57.546543	5.063867E-1	9.072494E-3	1.782039E-3	3.785424E-4	4.045178E-3	2.380588E-3	1.356130E-3	9.454825E-3
10/19/2017  17:43:57.547543	1.089281E+0	4.454957E-3	5.455563E-3	7.285170E-3	3.777507E-3	3.965505E-3	8.031551E-4	4.109291E-3
10/19/2017  17:43:57.548543	7.940519E-1	3.195191E-3	3.806823E-4	6.069655E-3	7.087431E-3	2.768564E-3	1.376185E-4	7.892222E-3
10/19/2017  17:43:57.549543	6.953331E-1	8.669629E-3	2.415549E-3	1.145180E-2	8.172228E-3	6.084307E-3	6.848978E-3	5.361802E-3
10/19/2017  17:43:57.550543	1.512286E+0	4.762919E-3	5.934018E-3	2.462443E-3	2.846656E-3	1.342621E-2	2.947838E-3	3.228069E-3
10/19/2017  17:43:57.551543	7.032748E-1	7.739949E-3	2.616518E-3	3.727954E-3	1.999546E-3	9.714123E-4	6.476844E-3	2.842174E-3
10/19/2017  17:43:57.552543	1.251665E+0	3.450138E-3	2.194439E-3	2.023745E-3	1.601608E-2	5.807171E-4	6.452892E-3	3.179405E-4
10/19/2017  17:43:57.553543	2.694717E+0	5.880990E-3	3.960153E-3	2.554022E-3	6.392847E-3	4.571734E-3	3.955065E-3	9.315633E-3
10/19/2017  17:43:57.554543	1.078683E+0	4.984328E-3	7.273465E-4	7.244740E-3	1.146291E-2	2.301480E-2	1.671470E-3	2.431703E-3
10/19/2017  17:43:57.555543	1.074201E+0	1.478566E-2	9.150133E-3	1.011373E-3	2.711103E-3	7.837470E-3	9.956994E-3	5.988981E-3
10/19/2017  17:43:57.556543	4.305138E+0	2.572314E-3	6.839401E-3	9.425098E-3	6.672971E-3	1.030625E-2	3.984107E-3	9.021545E-3
10/19/2017  17:43:57.557543	4.658612E+0	4.454586E-3	8.049669E-4	6.370960E-3	2.286366E-3	8.231884E-4	9.377252E-4	1.106711E-5
10/19/2017  17:43:57.558543	2.943337E+0	7.984395E-3	3.546248E-3	5.165459E-4	1.015874E-3	2.572898E-3	1.261351E-3	8.630139E-3
10/19/2017  17:43:57.559543	5.064547E-1	3.642010E-3	6.479106E-3	3.096079E-3	5.263629E-3	9.264937E-3	1.568402E-3	1.362945E-2
10/19/2017  17:43:57.560543	1.636951E+0	3.431066E-4	6.003986E-3	5.349647E-3	1.214886E-2	4.208893E-3	7.213312E-3	3.333965E-3
10/19/2017  17:43:57.561543	2.069222E+0	9.618025E-5	4.351969E-4	9.127497E-3	1.335131E-2	5.077787E-3	1.058517E-2	4.609012E-3
10/19/2017  17:43:57.562543	2.746248E+0	6.577311E-3	5.699398E-3	7.183195E-3	3.717803E-3	9.664303E-3	2.927930E-3	5.486312E-3
10/19/2017  17:43:57.563543	2.721597E+0	6.185429E-3	3.313981E-3	7.655344E-3	3.600943E-3	3.894455E-3	3.855724E-3	1.339144E-2
10/19/2017  17:43:57.564543	2.733154E+0	2.031989E-5	1.159718E-2	3.332867E-3	4.314510E-3	5.224487E-4	8.651279E-3	1.719169E-3
10/19/2017  17:43:57.565543	2.515392E-1	4.131752E-3	4.592306E-3	5.237941E-5	1.198383E-3	2.162020E-4	6.431949E-3	6.853788E-3
10/19/2017  17:43:57.566543	4.755302E+0	4.748148E-3	3.693015E-3	1.494467E-2	3.254393E-3	4.287440E-3	1.851868E-3	1.850733E-3
10/19/2017  17:43:57.567543	3.362936E+0	1.018045E-2	7.341083E-4	2.692389E-2	6.767094E-3	5.955694E-3	8.063453E-3	1.056035E-2
10/19/2017  17:43:57.568543	1.554863E-1	1.088428E-3	3.581579E-3	4.022630E-3	1.049037E-2	8.762739E-3	4.091835E-3	3.975939E-3
10/19/2017  17:43:57.569543	3.462593E+0	6.976716E-3	1.292564E-2	2.804527E-4	7.920919E-4	4.203806E-4	1.067276E-3	3.415016E-3
								
10/19/2017  17:43:57.570543	5.570630E+0	1.072297E-2	1.706111E-3	6.789070E-3	4.092955E-3	5.910369E-3	3.167196E-3	1.151788E-2
10/19/2017  17:43:57.571543	3.179042E+0	1.416106E-3	1.003563E-2	1.375620E-2	3.371822E-3	4.955603E-3	4.095522E-3	9.082475E-3
10/19/2017  17:43:57.572543	1.021577E+0	1.031718E-3	8.174101E-3	3.003191E-3	4.414002E-3	3.963449E-3	5.969870E-3	4.554231E-3
10/19/2017  17:43:57.573543	8.599279E-1	5.886147E-3	7.172274E-3	1.357166E-2	1.179718E-2	3.096196E-3	2.151823E-3	9.844688E-3
10/19/2017  17:43:57.574543	2.055421E+0	1.950191E-3	1.535512E-3	1.006416E-3	5.239915E-3	6.661057E-3	1.440622E-3	6.258738E-3
10/19/2017  17:43:57.575543	1.496237E+0	3.162437E-3	7.736236E-3	6.467587E-4	6.502620E-3	1.878112E-3	2.988925E-3	6.134307E-3
10/19/2017  17:43:57.576543	2.029046E+0	1.104494E-2	3.187912E-3	2.506326E-3	4.981183E-3	6.763091E-4	3.920738E-4	3.812432E-4
10/19/2017  17:43:57.577543	2.719455E+0	7.578850E-3	1.881795E-3	6.100517E-4	6.632450E-4	1.110156E-2	2.859700E-3	7.274982E-3
10/19/2017  17:43:57.578543	2.703234E+0	6.852028E-3	7.962821E-4	1.797151E-2	2.535932E-3	1.000774E-2	6.236028E-3	3.157304E-3
10/19/2017  17:43:57.579543	1.502944E+0	1.348762E-2	1.088734E-2	1.018804E-2	3.764303E-3	5.367153E-3	1.129287E-2	4.627638E-3
10/19/2017  17:43:57.580543	1.462486E-1	1.674898E-3	2.748522E-3	2.188495E-2	1.501362E-2	2.520945E-3	8.338958E-3	1.005933E-2
10/19/2017  17:43:57.581543	1.751025E+0	3.918610E-3	3.768597E-3	8.245992E-4	6.199131E-3	5.604499E-4	7.109625E-3	1.593121E-3
10/19/2017  17:43:57.582543	1.523249E+0	9.691794E-3	2.196951E-3	7.547330E-4	1.346922E-2	2.768079E-3	6.401928E-4	5.189830E-3
10/19/2017  17:43:57.583543	1.030130E+0	2.601641E-3	4.285014E-3	6.749584E-4	1.072907E-3	2.237263E-3	6.225637E-3	1.181376E-3
10/19/2017  17:43:57.584543	2.170429E+0	8.131565E-3	3.005324E-3	2.748538E-3	7.147940E-3	5.061544E-3	4.210900E-3	8.268879E-3
10/19/2017  17:43:57.585543	4.001392E-1	3.434433E-3	1.351971E-2	1.058941E-2	3.988985E-3	5.767209E-3	3.577643E-3	1.762451E-3
10/19/2017  17:43:57.586543	7.475515E+0	5.207175E-3	5.420550E-3	3.730130E-3	5.378924E-3	9.123260E-3	3.969885E-4	1.642247E-2
10/19/2017  17:43:57.587543	5.483944E+0	1.991138E-3	6.284978E-4	1.608213E-2	3.308843E-4	6.490958E-3	2.446554E-4	2.437031E-3
10/19/2017  17:43:57.588543	1.412946E-1	1.793315E-3	9.283285E-3	4.868483E-4	4.245101E-3	6.511083E-3	6.592889E-3	7.830074E-3
10/19/2017  17:43:57.589543	1.942947E-1	3.771226E-3	8.680002E-3	6.467007E-3	3.464469E-3	4.798546E-4	8.577443E-3	1.989973E-3
10/19/2017  17:43:57.590543	2.222012E+0	3.577906E-3	6.111802E-3	6.092676E-3	1.969670E-3	6.910260E-3	1.860160E-3	2.071140E-3
10/19/2017  17:43:57.591543	1.845905E+0	2.122204E-3	2.513380E-3	6.202419E-3	2.851976E-3	4.147403E-4	9.102312E-4	6.404576E-3
10/19/2017  17:43:57.592543	1.555526E+0	3.075919E-4	1.079241E-2	1.636276E-3	1.851707E-3	4.321105E-3	7.143972E-4	6.323727E-4
10/19/2017  17:43:57.593543	6.710349E+0	4.164442E-3	1.023161E-3	1.042617E-2	5.468533E-3	3.902441E-3	7.019174E-3	7.859252E-4
10/19/2017  17:43:57.594543	3.833411E+0	1.056536E-2	5.189808E-3	1.651344E-2	2.476904E-3	5.418169E-3	8.194092E-3	1.167090E-2
10/19/2017  17:43:57.595543	5.147611E+0	3.452643E-3	6.728441E-4	2.839431E-3	4.909196E-3	5.350272E-3	6.387917E-4	1.125685E-2
10/19/2017  17:43:57.596543	4.114933E+0	1.821633E-3	4.857489E-3	7.165737E-4	5.679656E-3	1.445118E-2	5.026387E-4	5.673200E-3
10/19/2017  17:43:57.597543	1.268416E+0	7.692658E-3	1.150265E-3	3.313683E-3	1.135331E-2	1.083803E-2	3.928872E-3	7.266105E-3
10/19/2017  17:43:57.598543	4.145754E+0	7.524195E-4	5.552671E-4	1.157597E-2	6.984847E-4	7.361740E-3	4.533025E-4	3.319144E-3
10/19/2017  17:43:57.599543	7.192747E-1	2.161331E-3	6.292571E-5	2.414888E-3	5.032452E-3	5.776812E-3	1.288068E-2	6.799373E-3
10/19/2017  17:43:57.600543	1.647806E+0	2.040740E-3	6.814899E-3	2.759253E-3	5.055378E-3	2.022760E-3	6.164188E-3	3.339667E-4
10/19/2017  17:43:57.601543	9.423910E-1	2.670675E-4	5.794324E-3	1.086910E-4	1.171831E-2	7.262519E-3	6.279832E-3	4.378620E-3
10/19/2017  17:43:57.602543	1.010087E+0	8.903559E-3	5.386750E-4	1.728057E-2	2.717513E-3	5.809377E-3	4.489083E-3	3.185936E-3
								
10/19/2017  17:43:57.603543	2.867836E+0	3.077039E-6	7.273412E-3	5.761008E-3	4.362489E-3	2.315787E-3	3.431168E-3	1.313458E-2
10/19/2017  17:43:57.604543	3.930105E+0	4.268127E-3	3.174499E-3	9.199851E-3	1.127096E-3	2.724427E-3	3.636741E-4	3.764098E-3
10/19/2017  17:43:57.605543	1.968197E+0	1.012126E-2	2.239566E-3	4.818377E-3	1.474173E-3	8.375303E-3	2.973213E-4	3.663980E-3
10/19/2017  17:43:57.606543	3.857798E-1	8.060762E-3	3.612928E-3	2.861742E-3	5.453347E-3	9.563249E-3	2.393072E-3	2.043408E-4
10/19/2017  17:43:57.607543	1.579731E+0	3.536397E-3	4.226704E-3	3.926009E-4	4.918330E-3	5.985986E-3	4.844995E-3	4.468083E-3
10/19/2017  17:43:57.608543	2.290824E+0	1.283455E-2	3.256562E-3	1.585889E-3	7.307051E-3	2.551604E-3	7.426058E-3	5.472986E-3
10/19/2017  17:43:57.609543	2.936488E+0	2.426575E-3	1.992324E-3	7.883132E-3	1.547400E-3	8.620242E-3	8.086690E-4	4.864800E-3
10/19/2017  17:43:57.610543	2.409503E+0	7.392378E-3	9.843438E-3	5.097176E-3	5.712262E-3	4.658642E-3	6.176294E-3	7.322303E-3
10/19/2017  17:43:57.611543	4.557668E+0	1.219538E-3	9.294384E-3	9.125129E-4	1.317763E-2	7.588664E-3	6.324067E-3	4.940725E-3
10/19/2017  17:43:57.612543	2.671996E+0	9.701181E-3	1.877744E-4	8.850234E-4	4.145402E-3	1.209333E-3	8.674743E-5	1.373377E-3
10/19/2017  17:43:57.613543	1.557746E-1	1.053076E-2	7.049089E-3	3.491663E-3	9.983927E-3	1.181745E-2	2.571614E-3	2.711373E-3
10/19/2017  17:43:57.614543	7.551407E-1	8.596655E-4	5.215647E-3	1.080842E-2	3.561166E-3	5.307834E-4	2.203791E-3	5.337324E-3
10/19/2017  17:43:57.615543	1.094801E+0	2.962459E-4	9.298107E-3	1.158632E-3	8.491546E-3	9.438160E-3	9.589480E-3	1.641602E-4
10/19/2017  17:43:57.616543	1.406660E+0	1.641193E-4	1.282809E-4	1.556314E-3	3.790599E-3	3.291896E-4	3.896542E-4	2.968051E-3
10/19/2017  17:43:57.617543	1.706276E+0	9.164876E-3	4.782329E-3	3.004773E-3	1.966170E-3	6.243354E-3	2.367885E-3	2.747384E-3
10/19/2017  17:43:57.618543	1.544358E+0	2.297576E-3	7.179938E-3	3.716337E-4	1.124737E-2	1.176240E-4	1.507475E-3	3.968406E-3
10/19/2017  17:43:57.619543	1.241330E+0	4.911056E-3	4.003826E-3	9.315480E-3	1.227409E-2	3.914813E-3	7.839632E-3	2.220023E-3
10/19/2017  17:43:57.620543	1.157994E+0	9.215104E-4	5.430928E-3	4.084252E-3	1.356365E-2	6.350338E-3	3.436079E-3	1.094427E-2
10/19/2017  17:43:57.621543	2.310779E-1	2.933410E-3	2.410820E-3	1.597684E-3	7.757127E-3	1.627538E-3	6.373987E-3	1.639332E-3
10/19/2017  17:43:57.622543	3.121866E-1	8.697876E-3	2.864307E-3	1.321194E-3	9.772081E-3	1.361712E-3	6.271583E-3	8.198451E-4
10/19/2017  17:43:57.623543	5.288231E-1	2.771869E-3	2.096568E-3	1.077403E-3	2.243228E-3	1.317821E-3	1.872291E-5	1.759336E-3
10/19/2017  17:43:57.624543	3.867482E+0	4.458963E-3	1.243019E-3	7.053373E-3	2.660350E-5	3.404060E-3	8.878538E-3	7.898118E-4
10/19/2017  17:43:57.625543	3.938725E+0	3.147567E-3	1.024341E-2	6.290230E-3	9.298889E-3	4.422569E-4	4.571582E-3	2.600369E-3
10/19/2017  17:43:57.626543	1.377719E+0	6.644340E-3	1.396460E-3	1.629151E-3	4.345250E-4	1.709402E-3	1.046207E-3	1.995322E-2
10/19/2017  17:43:57.627543	1.205188E+0	4.453094E-4	5.416308E-3	1.370041E-2	1.628397E-3	5.335121E-3	5.037353E-3	1.465681E-3
10/19/2017  17:43:57.628543	4.690222E+0	6.745039E-3	5.671421E-4	1.071198E-2	1.302564E-3	7.428147E-3	9.702625E-4	3.957561E-3
10/19/2017  17:43:57.629543	3.974864E+0	4.164232E-3	5.302399E-4	1.275518E-2	3.367836E-3	3.339022E-3	5.507903E-3	8.228681E-4
10/19/2017  17:43:57.630543	9.810575E-1	1.090103E-3	8.160921E-3	2.871192E-3	1.786026E-3	2.390875E-3	3.404843E-3	6.645533E-3
10/19/2017  17:43:57.631543	6.235569E-1	8.156022E-3	3.248093E-3	5.911020E-5	1.077164E-3	2.741932E-3	6.959004E-3	9.629055E-3
10/19/2017  17:43:57.632543	2.199510E+0	4.973638E-3	9.179190E-3	4.336463E-3	3.090858E-3	1.309122E-2	7.685651E-3	1.578938E-3
10/19/2017  17:43:57.633543	2.145176E+0	1.239584E-3	6.409174E-3	2.898022E-3	6.355761E-5	8.538181E-3	1.410357E-3	1.237392E-3
10/19/2017  17:43:57.634543	1.002736E+0	1.527542E-3	4.250842E-3	4.764992E-3	2.192495E-3	2.122771E-3	3.308324E-3	1.071396E-3
10/19/2017  17:43:57.635543	3.431349E-2	5.630336E-3	3.088459E-3	5.752433E-3	2.888421E-3	3.301396E-3	2.044739E-4	5.555401E-3
								
10/19/2017  17:43:57.636543	3.769776E-1	3.007563E-4	7.003274E-5	1.864775E-3	2.218654E-3	2.788006E-3	1.065546E-4	1.409336E-3
10/19/2017  17:43:57.637543	1.094689E-1	2.444269E-4	1.950068E-3	1.107887E-3	3.607984E-3	4.487719E-3	1.790575E-5	8.160079E-3
10/19/2017  17:43:57.638543	2.757878E+0	1.962311E-3	3.280647E-3	2.630823E-3	2.084519E-3	9.462378E-4	2.096343E-3	1.754757E-3
10/19/2017  17:43:57.639543	5.258410E-1	1.208689E-2	2.438466E-3	2.926279E-3	4.689293E-3	4.808778E-4	2.996674E-3	5.086026E-3
10/19/2017  17:43:57.640543	1.518035E+0	1.513894E-3	1.706189E-5	6.113842E-3	3.680514E-3	1.068933E-2	2.085334E-3	9.665773E-3
10/19/2017  17:43:57.641543	1.244685E+0	4.081155E-3	1.678133E-3	7.164380E-3	7.717304E-3	3.346940E-3	3.000682E-3	4.739595E-3
10/19/2017  17:43:57.642543	9.916358E-1	1.014990E-2	5.871374E-3	5.658996E-3	3.969571E-3	9.000030E-3	2.226620E-3	1.208855E-3
10/19/2017  17:43:57.643543	8.542426E-1	7.618309E-3	1.873030E-3	2.194374E-3	5.787233E-3	3.023356E-4	3.731231E-3	3.312943E-3
10/19/2017  17:43:57.644543	3.486530E-1	1.131235E-3	1.164107E-2	1.042301E-2	3.976826E-4	4.854324E-3	1.046664E-2	3.862697E-4
10/19/2017  17:43:57.645543	1.735063E-1	7.078524E-4	7.848171E-3	9.383122E-3	5.200291E-3	7.184263E-3	7.805385E-4	1.339163E-2
10/19/2017  17:43:57.646543	1.629995E+0	4.663784E-3	8.644803E-3	1.673123E-3	8.454448E-3	3.928095E-3	6.262674E-3	1.024639E-2
10/19/2017  17:43:57.647543	5.814788E+0	5.689940E-3	1.926638E-3	1.699276E-2	4.033137E-4	3.144245E-3	6.191656E-3	7.383424E-3
10/19/2017  17:43:57.648543	8.139885E-1	3.100846E-5	5.704192E-3	8.095889E-3	2.839662E-4	4.024247E-3	1.903423E-3	7.990393E-3
10/19/2017  17:43:57.649543	3.011480E+0	4.511423E-3	6.645007E-3	1.311589E-3	6.292840E-3	3.480827E-4	9.945217E-3	1.446596E-3
10/19/2017  17:43:57.650543	4.610351E+0	1.116485E-3	2.698883E-3	2.818327E-3	4.434091E-3	1.097674E-2	5.100413E-3	5.486354E-3
10/19/2017  17:43:57.651543	4.397651E+0	1.216539E-2	8.351015E-3	2.746905E-3	3.332438E-3	7.271438E-3	5.099911E-3	7.054355E-3
10/19/2017  17:43:57.652543	2.888607E+0	4.762729E-3	3.350258E-3	8.451456E-3	8.413189E-3	6.515457E-4	5.045602E-3	1.499570E-3
10/19/2017  17:43:57.653543	1.585525E+0	5.987632E-3	9.119534E-3	3.107380E-3	3.020539E-3	1.495037E-2	8.342638E-4	1.042420E-3
10/19/2017  17:43:57.654543	2.476536E+0	1.093799E-2	4.789610E-3	1.392904E-2	2.503914E-3	2.583219E-3	7.203082E-3	6.644656E-4
10/19/2017  17:43:57.655543	3.301957E-1	7.594804E-3	7.144444E-3	1.265831E-2	2.275150E-3	2.133106E-3	3.646455E-3	8.990146E-3
10/19/2017  17:43:57.656543	2.794492E+0	5.293860E-3	4.561351E-3	6.111365E-3	9.157805E-4	3.222586E-3	4.825474E-3	7.040987E-3
10/19/2017  17:43:57.657543	4.423735E+0	3.522889E-3	1.054267E-2	4.410607E-3	5.375573E-3	3.794819E-3	5.345651E-3	3.182675E-3
10/19/2017  17:43:57.658543	1.509601E+0	2.050775E-3	2.754953E-3	7.458015E-3	4.613251E-3	1.331871E-2	3.801984E-3	6.204973E-3
10/19/2017  17:43:57.659543	8.567496E-1	5.628120E-3	8.090969E-4	5.843763E-3	2.909903E-3	1.349289E-3	8.282077E-3	4.607960E-3
10/19/2017  17:43:57.660543	2.160169E+0	1.499111E-4	1.238246E-3	6.548910E-3	1.580499E-2	8.187694E-4	2.816635E-3	1.220365E-2
10/19/2017  17:43:57.661543	1.606046E+0	4.865707E-3	8.026847E-3	6.767899E-3	4.451730E-4	6.327492E-3	2.059019E-3	6.645720E-3
10/19/2017  17:43:57.662543	9.902096E-1	1.585045E-3	3.946452E-3	8.523325E-3	8.486286E-3	4.133373E-4	7.368717E-4	6.987476E-3
10/19/2017  17:43:57.663543	3.251091E-1	8.403059E-4	7.319702E-3	8.353381E-3	2.782254E-3	6.012074E-3	5.593945E-4	1.035647E-2
10/19/2017  17:43:57.664543	5.404291E-2	3.935080E-3	7.617244E-4	1.343044E-3	8.616044E-3	6.928740E-3	3.911041E-3	9.410101E-3
10/19/2017  17:43:57.665543	1.952873E+0	7.192976E-3	4.026025E-3	1.245334E-2	2.737447E-3	9.472185E-3	4.713773E-4	9.022268E-3
10/19/2017  17:43:57.666543	2.970744E+0	8.083704E-3	8.355768E-4	1.923079E-3	4.321395E-3	4.256973E-3	8.515003E-3	6.823258E-3
10/19/2017  17:43:57.667543	2.036380E+0	3.625765E-3	6.769373E-4	7.784348E-4	5.542175E-3	3.181458E-3	9.141919E-3	8.002309E-3
10/19/2017  17:43:57.668543	1.044892E+0	8.384598E-3	8.091715E-3	3.787948E-3	1.554799E-3	8.517723E-3	4.173410E-3	5.460152E-3
								
10/19/2017  17:43:57.669543	2.464859E+0	1.231934E-2	5.435706E-3	4.729279E-3	5.747158E-3	3.571091E-3	1.904280E-2	1.760534E-4
10/19/2017  17:43:57.670543	5.051854E+0	1.578681E-3	2.007837E-3	7.802835E-3	4.379935E-3	1.316081E-2	1.800028E-3	2.045815E-3
10/19/2017  17:43:57.671543	4.462922E+0	8.476054E-3	5.263845E-4	7.852408E-3	6.284254E-4	8.952725E-4	1.244942E-2	5.362904E-3
10/19/2017  17:43:57.672543	6.530852E-1	2.968857E-4	2.302920E-3	1.120838E-3	8.627412E-3	6.650842E-4	1.382113E-4	3.214805E-4
10/19/2017  17:43:57.673543	2.728082E+0	3.382670E-3	3.033778E-3	3.232597E-3	1.932233E-3	4.726328E-4	8.746795E-3	4.389224E-3
10/19/2017  17:43:57.674543	2.625430E+0	9.305974E-3	1.266838E-2	1.861039E-3	1.346588E-3	6.789327E-3	3.646255E-4	3.696656E-3
10/19/2017  17:43:57.675543	3.831208E+0	7.284527E-3	6.897041E-3	7.530789E-3	1.312352E-3	1.940969E-3	2.614314E-3	7.212214E-3
10/19/2017  17:43:57.676543	1.788731E+0	9.524707E-4	1.299531E-3	1.174324E-3	3.179028E-3	1.687952E-3	1.847893E-4	7.252111E-3
10/19/2017  17:43:57.677543	4.247069E-1	1.475938E-2	3.742989E-3	1.203981E-2	6.543774E-3	5.764929E-3	2.199462E-5	8.195898E-3
10/19/2017  17:43:57.678543	1.254093E+0	3.791730E-3	3.215604E-3	1.360144E-2	7.079202E-6	1.951745E-4	6.581781E-3	3.866039E-3
10/19/2017  17:43:57.679543	6.591094E-1	8.655605E-3	1.599970E-3	3.392207E-3	4.296137E-4	4.148121E-3	1.913370E-3	8.053288E-3
10/19/2017  17:43:57.680543	1.449102E+0	2.163683E-3	7.992034E-3	8.432702E-3	5.075658E-3	3.726570E-3	3.638309E-3	1.022503E-3
10/19/2017  17:43:57.681543	1.531795E+0	2.577433E-3	3.747029E-3	9.375317E-3	8.210741E-3	2.769371E-3	3.982025E-4	5.387082E-3
10/19/2017  17:43:57.682543	1.311964E+0	2.795950E-3	2.666274E-3	1.097472E-2	7.223652E-3	4.515717E-3	6.276565E-3	1.830035E-3
10/19/2017  17:43:57.683543	2.116608E+0	1.088879E-2	4.216903E-4	7.854310E-3	7.033846E-4	5.224975E-3	1.411744E-6	9.440149E-3
10/19/2017  17:43:57.684543	3.010403E+0	3.203520E-3	4.819848E-3	5.972220E-3	8.358701E-3	1.145112E-3	4.534892E-3	4.490331E-3
10/19/2017  17:43:57.685543	7.208766E-1	6.736331E-3	3.470928E-3	3.797268E-5	1.508846E-3	6.211098E-3	1.028601E-3	1.400539E-3
10/19/2017  17:43:57.686543	8.621183E-1	3.245236E-4	4.130139E-3	1.520759E-2	1.359633E-3	9.103432E-3	7.960851E-3	5.178235E-3
10/19/2017  17:43:57.687543	3.280888E-1	6.493594E-3	5.083248E-3	7.003986E-3	1.232200E-3	2.176134E-3	3.265245E-3	3.310579E-3
10/19/2017  17:43:57.688543	1.091195E+0	6.146848E-3	3.134038E-3	7.603966E-3	1.050315E-3	5.887787E-3	1.852735E-3	2.836578E-3
10/19/2017  17:43:57.689543	1.211228E+0	4.477295E-3	3.056806E-4	1.227870E-3	2.614885E-3	2.512299E-3	7.932751E-3	2.366171E-4
10/19/2017  17:43:57.690543	3.263681E-1	1.149124E-3	3.871866E-3	9.039359E-4	7.460948E-4	1.727387E-4	6.024612E-3	2.694994E-3
10/19/2017  17:43:57.691543	7.019722E-3	1.290505E-3	1.097876E-2	9.267242E-3	5.341166E-3	2.231520E-3	7.108834E-5	8.676123E-3
10/19/2017  17:43:57.692543	2.789798E+0	3.497370E-3	1.040098E-2	4.036063E-3	4.111208E-3	1.709319E-3	6.568237E-3	2.532695E-3
10/19/2017  17:43:57.693543	3.718378E+0	6.788738E-3	8.120812E-3	1.725359E-2	5.602920E-3	1.169708E-2	8.491248E-3	2.846781E-4
10/19/2017  17:43:57.694543	2.132734E+0	1.707217E-2	3.282288E-4	5.896609E-3	6.605896E-4	7.270578E-3	2.619406E-3	6.598560E-3
10/19/2017  17:43:57.695543	9.606223E-2	5.389254E-3	1.109431E-4	3.909480E-3	3.005670E-3	9.831233E-3	2.449020E-3	8.620054E-3
10/19/2017  17:43:57.696543	2.588397E+0	1.702600E-2	4.513470E-4	1.286548E-2	1.912238E-3	1.733269E-3	5.987305E-3	4.530332E-3
10/19/2017  17:43:57.697543	1.035535E+0	7.772775E-3	2.864126E-3	9.256096E-3	1.146569E-3	5.106075E-3	2.545199E-3	9.447658E-3
10/19/2017  17:43:57.698543	1.503023E+0	5.883803E-3	8.810859E-3	1.323160E-2	3.171702E-3	9.664780E-3	6.438645E-3	4.771496E-3
10/19/2017  17:43:57.699543	1.434269E+0	6.526538E-3	4.592746E-3	7.227106E-3	1.779476E-3	4.531638E-4	6.151274E-3	2.491339E-4
10/19/2017  17:43:57.700543	1.470986E+0	6.436360E-3	1.071401E-3	1.257858E-2	2.098044E-2	4.037118E-3	1.760166E-4	9.162769E-3
10/19/2017  17:43:57.701543	1.130656E+0	3.787419E-4	1.386192E-3	6.837646E-3	3.803466E-4	5.878673E-3	4.741839E-3	2.613847E-3
								
10/19/2017  17:43:57.702543	1.250634E+0	3.999850E-3	5.538760E-3	1.059364E-2	6.448525E-4	1.963133E-3	1.346644E-3	8.593453E-3
10/19/2017  17:43:57.703543	2.399535E-3	3.831405E-3	5.932813E-3	1.071182E-3	3.018879E-3	9.546384E-4	3.150421E-3	6.925158E-3
10/19/2017  17:43:57.704543	3.069436E-1	2.826645E-3	5.796725E-4	6.378391E-4	1.857239E-3	5.611275E-3	4.288274E-3	4.835562E-3
10/19/2017  17:43:57.705543	1.029873E+0	4.507855E-3	1.393936E-2	1.540400E-2	7.742958E-3	1.424026E-3	1.022650E-2	7.701790E-3
10/19/2017  17:43:57.706543	1.582892E+0	7.683255E-3	8.079243E-4	7.125335E-3	3.513657E-3	1.464614E-2	8.101835E-4	8.809761E-4
10/19/2017  17:43:57.707543	2.269788E+0	9.880669E-4	4.907100E-3	1.147346E-2	1.846998E-3	3.968683E-3	1.248022E-2	5.465148E-4
10/19/2017  17:43:57.708543	2.372598E+0	4.091889E-4	1.397751E-2	1.031038E-2	7.365664E-3	6.089599E-3	6.598502E-3	1.877970E-3
10/19/2017  17:43:57.709543	5.471354E-1	4.255459E-3	3.171060E-3	1.912958E-2	6.717212E-4	2.030927E-3	2.809168E-3	5.099907E-3
10/19/2017  17:43:57.710543	6.561897E-1	1.264359E-2	4.798092E-3	8.665843E-4	1.285755E-2	1.288314E-3	4.342982E-3	9.065789E-4
10/19/2017  17:43:57.711543	1.750188E+0	2.675230E-3	4.406475E-4	3.697211E-3	3.957072E-3	5.809395E-3	6.377587E-4	8.849623E-4
10/19/2017  17:43:57.712543	2.915704E+0	1.848070E-3	1.998065E-3	3.444691E-4	2.920468E-3	8.754670E-3	2.095596E-3	2.996193E-3
10/19/2017  17:43:57.713543	2.831368E+0	1.611314E-2	5.651797E-3	7.906427E-5	1.164832E-4	6.162149E-4	1.844453E-3	6.186507E-5
10/19/2017  17:43:57.714543	1.950642E+0	8.406454E-3	1.093402E-2	1.118636E-4	2.296503E-3	9.539360E-3	2.708824E-3	2.060440E-3
10/19/2017  17:43:57.715543	1.783992E+0	6.667791E-3	8.838317E-4	2.399736E-3	1.590458E-3	4.414634E-4	6.407243E-4	8.200350E-4
10/19/2017  17:43:57.716543	6.409378E-2	8.653989E-5	7.378031E-4	8.245883E-3	3.333511E-3	1.691676E-2	3.058776E-3	6.967808E-4
10/19/2017  17:43:57.717543	9.687085E-2	4.994394E-3	5.857005E-3	1.604180E-2	1.057103E-2	8.099790E-3	1.784639E-3	4.888356E-3
10/19/2017  17:43:57.718543	3.679418E+0	8.338057E-3	9.135945E-3	3.911524E-3	5.896316E-3	1.069105E-2	5.625489E-3	9.700847E-4
10/19/2017  17:43:57.719543	4.751649E+0	1.739826E-3	2.055102E-3	9.461579E-3	1.950555E-3	8.622452E-4	1.287853E-2	3.012319E-3
10/19/2017  17:43:57.720543	3.946404E+0	9.435484E-4	7.841858E-3	2.197331E-3	3.149062E-3	5.043507E-4	8.404741E-3	4.749926E-5
10/19/2017  17:43:57.721543	2.989216E-1	7.945317E-3	8.109008E-4	3.185651E-3	6.997284E-3	4.097751E-3	1.799024E-3	2.074745E-3
10/19/2017  17:43:57.722543	2.105826E+0	9.977527E-4	2.946566E-5	5.993233E-3	5.366070E-3	1.415478E-3	5.183620E-3	7.304638E-3
10/19/2017  17:43:57.723543	1.510123E+0	4.103400E-3	3.620854E-3	5.016863E-3	6.859069E-3	3.303671E-3	5.152390E-3	7.255007E-3
10/19/2017  17:43:57.724543	3.241105E-1	9.966595E-4	6.950902E-3	4.139157E-3	1.980418E-3	8.691774E-3	1.592006E-3	3.929805E-3
10/19/2017  17:43:57.725543	1.457274E+0	4.056091E-3	9.995232E-3	9.538762E-4	3.954327E-3	5.140805E-3	1.034990E-3	7.516845E-3
10/19/2017  17:43:57.726543	5.850463E+0	1.085884E-3	9.666586E-4	6.267998E-3	8.824216E-4	6.283715E-3	5.760340E-3	1.128151E-3
10/19/2017  17:43:57.727543	4.530709E+0	3.855727E-4	5.233005E-3	1.553313E-2	7.990239E-4	8.259848E-3	2.559138E-3	7.257956E-3
10/19/2017  17:43:57.728543	3.893711E+0	8.810148E-3	5.903268E-3	6.606392E-3	7.193950E-3	1.113755E-3	1.706988E-2	8.119446E-3
10/19/2017  17:43:57.729543	3.597630E+0	4.376828E-3	1.334834E-2	1.795728E-2	5.858765E-3	5.708011E-3	7.824487E-3	2.736977E-3
10/19/2017  17:43:57.730543	4.194348E-1	7.052348E-4	3.626526E-3	4.954830E-3	2.300078E-3	4.154820E-3	8.184443E-3	6.090197E-3
10/19/2017  17:43:57.731543	3.593374E+0	1.995934E-3	1.352948E-2	3.321368E-4	8.052730E-3	2.306540E-4	7.010512E-3	2.608391E-3
10/19/2017  17:43:57.732543	4.971182E+0	6.030789E-3	3.747733E-3	4.556035E-3	3.360500E-3	6.974773E-3	3.435652E-4	6.642757E-3
10/19/2017  17:43:57.733543	2.430920E+0	2.127232E-3	7.429762E-3	1.005632E-2	1.363893E-2	7.564383E-3	8.827927E-3	2.798410E-3
10/19/2017  17:43:57.734543	6.456318E-1	5.044881E-3	3.186032E-3	4.911879E-3	7.697282E-3	5.301383E-3	2.103176E-3	8.719972E-3
								
10/19/2017  17:43:57.735543	8.469761E-1	5.649760E-3	2.019936E-3	1.849475E-2	5.391088E-3	5.109348E-3	7.150148E-3	2.839395E-3
10/19/2017  17:43:57.736543	1.404390E+0	1.147630E-2	5.428042E-3	2.218108E-3	1.385947E-2	3.738463E-3	5.945691E-3	8.911501E-3
10/19/2017  17:43:57.737543	1.321626E+0	1.718486E-3	2.385331E-3	1.934813E-3	1.027956E-3	2.562486E-3	1.109844E-5	4.379832E-3
10/19/2017  17:43:57.738543	6.040551E-1	3.231476E-3	5.082384E-3	4.985333E-4	7.382817E-3	5.932302E-4	2.211603E-3	1.365940E-3
10/19/2017  17:43:57.739543	4.873184E-1	1.727664E-4	8.086466E-3	8.590008E-3	5.696626E-3	1.439832E-3	3.689539E-3	1.133364E-3
10/19/2017  17:43:57.740543	6.769311E-2	2.043673E-3	5.246975E-3	3.836050E-4	1.880556E-3	1.523134E-3	2.407984E-3	9.188885E-4
10/19/2017  17:43:57.741543	4.827440E-2	2.926933E-3	5.981688E-3	6.846489E-3	9.588158E-4	1.473287E-3	8.162312E-4	5.039330E-3
10/19/2017  17:43:57.742543	1.161643E+0	2.049115E-3	8.890485E-3	1.770607E-3	3.523592E-3	7.477462E-4	3.334044E-3	5.190205E-3
10/19/2017  17:43:57.743543	3.409905E+0	5.168750E-3	2.435897E-4	1.221856E-2	2.080035E-3	4.429552E-3	3.504679E-4	6.199745E-4
10/19/2017  17:43:57.744543	1.519945E+0	4.970571E-3	4.664658E-3	2.883814E-4	1.709972E-3	2.504818E-3	5.199920E-3	2.610636E-3
10/19/2017  17:43:57.745543	1.362670E+0	1.239165E-3	3.158636E-3	5.013628E-3	5.114879E-3	5.544343E-3	4.182551E-3	2.564601E-3
10/19/2017  17:43:57.746543	1.345236E+0	1.232117E-2	8.633448E-3	2.569738E-3	3.207084E-3	1.547070E-2	9.756987E-3	1.869765E-3
10/19/2017  17:43:57.747543	9.932928E-1	6.540026E-3	3.759570E-3	7.252351E-3	9.075003E-3	1.044670E-2	1.116001E-2	5.186653E-3
10/19/2017  17:43:57.748543	1.186363E+0	2.562666E-3	8.597849E-3	1.063554E-3	2.264935E-3	3.766209E-3	9.970576E-3	7.767409E-4
10/19/2017  17:43:57.749543	1.452108E+0	6.901845E-3	2.011117E-3	3.423947E-3	4.748859E-4	1.255324E-3	5.423654E-3	7.410170E-4
10/19/2017  17:43:57.750543	5.830937E-1	1.711279E-3	1.501841E-3	2.165915E-3	1.916855E-3	8.162353E-3	5.369168E-3	1.455607E-3
10/19/2017  17:43:57.751543	1.011633E+0	7.846285E-3	1.095319E-3	4.683516E-3	1.399866E-3	5.332193E-4	8.630171E-3	1.371058E-3
10/19/2017  17:43:57.752543	1.682178E+0	3.214137E-3	1.003927E-2	5.045953E-3	9.848537E-3	4.618832E-3	1.828263E-4	9.844067E-3
10/19/2017  17:43:57.753543	9.991745E-2	4.060700E-3	6.184590E-3	2.858503E-3	4.487427E-3	3.446564E-3	4.355981E-3	1.774267E-3
10/19/2017  17:43:57.754543	1.032521E+0	4.772954E-3	4.656885E-3	1.620532E-2	3.964207E-3	1.693693E-3	1.485821E-3	3.598355E-3
10/19/2017  17:43:57.755543	3.924143E-1	1.008485E-2	3.124399E-3	7.633899E-3	8.884321E-4	9.995753E-4	1.330701E-3	4.348622E-4
10/19/2017  17:43:57.756543	6.060644E-1	1.233230E-3	4.382573E-3	5.370075E-3	2.208234E-3	6.924114E-3	3.332665E-3	6.182812E-3
10/19/2017  17:43:57.757543	1.268031E-1	6.771487E-4	5.272205E-3	3.692802E-3	6.557812E-3	5.572377E-5	2.470393E-3	1.093096E-2
10/19/2017  17:43:57.758543	1.045020E+0	4.089681E-3	8.240326E-4	4.175866E-3	9.428553E-3	4.930851E-3	3.887790E-3	3.152799E-3
10/19/2017  17:43:57.759543	4.965895E+0	8.699414E-4	3.042204E-3	5.338677E-3	6.240490E-3	1.048250E-2	1.039444E-2	4.531676E-3
10/19/2017  17:43:57.760543	4.795474E+0	1.487379E-3	1.059809E-2	1.023938E-2	2.091022E-3	5.433128E-3	7.882924E-4	9.791006E-3
10/19/2017  17:43:57.761543	1.124048E+0	3.114475E-3	8.180065E-3	8.929137E-3	3.318480E-3	6.099450E-4	1.265341E-2	8.421236E-3
10/19/2017  17:43:57.762543	3.670700E-1	6.660960E-3	8.410127E-3	1.411942E-2	2.469814E-3	7.083787E-3	1.993366E-3	1.737205E-3
10/19/2017  17:43:57.763543	3.400493E+0	4.463197E-4	9.078049E-3	4.229443E-3	6.432893E-5	2.759654E-3	3.849672E-3	1.157745E-3
10/19/2017  17:43:57.764543	3.280823E+0	4.060234E-3	3.546823E-4	7.765773E-3	7.010644E-3	3.787612E-3	5.031685E-3	6.758586E-4
10/19/2017  17:43:57.765543	2.589010E+0	3.669061E-3	4.999880E-3	5.659713E-3	8.829458E-4	2.188695E-3	2.975285E-3	1.323226E-2
10/19/2017  17:43:57.766543	1.090351E+0	2.585466E-3	4.823511E-3	1.251978E-2	7.514941E-4	4.306028E-3	4.341650E-3	6.444364E-3
10/19/2017  17:43:57.767543	1.646855E+0	1.344098E-2	3.462308E-3	1.340421E-2	3.716108E-3	1.378421E-3	1.382136E-3	9.587899E-3
								
10/19/2017  17:43:57.768543	2.759347E+0	8.018913E-3	4.972399E-3	7.736472E-3	2.768074E-4	2.898094E-3	3.180237E-3	2.809964E-3
10/19/2017  17:43:57.769543	1.189893E+0	8.008024E-3	1.359995E-2	3.301632E-3	6.541450E-3	2.848957E-3	4.484604E-3	2.192210E-3
10/19/2017  17:43:57.770543	9.489512E-1	1.181180E-2	8.230831E-3	4.253305E-3	3.196058E-4	2.599704E-3	1.179364E-3	7.263015E-3
10/19/2017  17:43:57.771543	6.118600E-1	3.514740E-4	1.496780E-2	3.939955E-3	1.241403E-4	8.827785E-3	7.376835E-3	3.537737E-3
10/19/2017  17:43:57.772543	3.196463E-1	6.947409E-3	3.196779E-4	7.542560E-3	6.436859E-3	4.334571E-3	6.930642E-4	6.849528E-3
10/19/2017  17:43:57.773543	3.467311E-1	5.829766E-4	2.721062E-3	5.309858E-3	8.834500E-3	7.117787E-3	6.346032E-3	8.355342E-3
10/19/2017  17:43:57.774543	9.640264E-1	1.051999E-2	4.268789E-3	1.430159E-2	4.331023E-3	8.517496E-3	3.612416E-4	3.812299E-3
10/19/2017  17:43:57.775543	2.284999E+0	3.556020E-3	1.743281E-3	3.705246E-3	7.081932E-3	1.910262E-6	2.522051E-3	1.692487E-2
10/19/2017  17:43:57.776543	6.256051E-1	1.138582E-2	6.050084E-3	1.226670E-2	4.309403E-3	2.523299E-3	8.284180E-3	5.621452E-3
10/19/2017  17:43:57.777543	7.115787E+0	2.940754E-3	2.785426E-4	5.838336E-3	3.732425E-3	4.244310E-3	5.225751E-3	8.673958E-3
10/19/2017  17:43:57.778543	5.472680E+0	2.041863E-4	6.017141E-3	7.361025E-3	1.193973E-2	1.183394E-3	3.948624E-3	3.201342E-4
10/19/2017  17:43:57.779543	1.837065E+0	6.062501E-3	2.730059E-3	1.224677E-2	1.202368E-2	5.040318E-3	3.619555E-3	2.483698E-3
10/19/2017  17:43:57.780543	9.453703E-1	7.015696E-3	4.638182E-3	2.080803E-3	7.171166E-3	1.057848E-3	4.048615E-3	6.849996E-3
10/19/2017  17:43:57.781543	4.076394E-1	1.043994E-3	4.957818E-3	1.016501E-2	1.228616E-3	1.058081E-3	7.229593E-3	1.880048E-3
10/19/2017  17:43:57.782543	2.702537E+0	5.433720E-3	7.840728E-3	1.040384E-2	9.163479E-4	2.514596E-3	5.360222E-4	3.799992E-3
10/19/2017  17:43:57.783543	3.162532E+0	5.299799E-3	5.935090E-3	9.716605E-4	6.261505E-3	3.054229E-3	4.347205E-3	5.757240E-3
10/19/2017  17:43:57.784543	1.723304E+0	8.507329E-3	4.339096E-3	1.021068E-2	3.989622E-3	6.948722E-3	3.091803E-3	2.768928E-3
10/19/2017  17:43:57.785543	1.078085E+0	2.513708E-3	5.053126E-3	2.679317E-3	4.686984E-3	5.672714E-3	8.273565E-3	1.971188E-3
10/19/2017  17:43:57.786543	1.414509E+0	6.018369E-3	5.488035E-3	7.206021E-3	3.708281E-3	2.769566E-3	5.695367E-3	1.223393E-3
10/19/2017  17:43:57.787543	4.457849E+0	1.773873E-3	2.052095E-3	5.439106E-3	3.121635E-3	9.189172E-5	4.769324E-3	2.963777E-3
10/19/2017  17:43:57.788543	3.048681E+0	1.003075E-2	6.985724E-3	8.345798E-4	4.735167E-3	8.951475E-3	2.542935E-3	7.158881E-3
10/19/2017  17:43:57.789543	3.645313E+0	3.498980E-3	8.443594E-3	9.649605E-3	5.677058E-3	6.688796E-3	3.332326E-3	9.843363E-3
10/19/2017  17:43:57.790543	5.694493E+0	4.190546E-3	4.063336E-3	9.065324E-3	4.230546E-4	2.560746E-3	7.097916E-3	5.374519E-4
10/19/2017  17:43:57.791543	4.042139E+0	3.058717E-3	1.447796E-3	8.178457E-3	5.087915E-4	4.835603E-3	7.711852E-4	2.706739E-4
10/19/2017  17:43:57.792543	1.903602E+0	4.388609E-3	5.367551E-3	9.232801E-3	2.752019E-3	3.446553E-3	4.425609E-3	4.361824E-3
10/19/2017  17:43:57.793543	7.921322E-1	7.703445E-3	1.148816E-2	7.848959E-3	2.113472E-3	9.367621E-5	5.837238E-3	1.019405E-2
10/19/2017  17:43:57.794543	4.452839E+0	9.224376E-4	7.157707E-3	1.345090E-2	8.075091E-3	1.946421E-3	1.212843E-4	5.674504E-3
10/19/2017  17:43:57.795543	4.626738E+0	1.267992E-2	8.470465E-4	1.480989E-2	9.789935E-4	9.790737E-4	4.625751E-3	4.429146E-4
10/19/2017  17:43:57.796543	3.183853E+0	3.989946E-3	5.984151E-4	8.672128E-3	3.134189E-3	4.141864E-3	1.166183E-3	1.132782E-2
10/19/2017  17:43:57.797543	2.790226E-2	6.968214E-4	6.882593E-3	4.723944E-4	4.541829E-3	9.373572E-4	5.725046E-3	7.256876E-3
10/19/2017  17:43:57.798543	3.377123E+0	3.877148E-3	2.448377E-3	9.221146E-3	7.492586E-3	6.295433E-3	8.971239E-3	3.043650E-3
10/19/2017  17:43:57.799543	2.631721E+0	5.952007E-3	9.519557E-3	2.177848E-3	1.590970E-3	6.010781E-3	1.845635E-3	8.777819E-3
10/19/2017  17:43:57.800543	8.709498E-1	1.951461E-3	4.319726E-4	4.829002E-3	5.955355E-3	5.604881E-4	5.586002E-3	3.798138E-4
								
10/19/2017  17:43:57.801543	3.636025E-1	5.364839E-3	6.814867E-3	9.974592E-4	1.709136E-2	9.641595E-3	2.211640E-3	9.129602E-3
10/19/2017  17:43:57.802543	2.225142E+0	2.541150E-3	2.429339E-3	3.993664E-3	3.696024E-4	5.810330E-3	1.201410E-3	6.579819E-3
10/19/2017  17:43:57.803543	1.733697E+0	1.025617E-2	3.051032E-3	7.424168E-3	1.396697E-2	4.948411E-3	1.798339E-3	2.488783E-3
