Parameters: 	Upper Cutoff:  500	Lower Cutoff: 30	Sample Rate (Hz): 1000	Frames Per Second30	Display Window Size (S)400	MVC Window Size (s): 400	Seconds To Acquire MVC: 3	Display Channel: 0
waveform	[0]	[1]	[2]	[3]	[4]	[5]	[6]	[7]
t0	10/19/2017  17:44:39.640096	10/19/2017  17:44:39.640096	10/19/2017  17:44:39.640096	10/19/2017  17:44:39.640096	10/19/2017  17:44:39.640096	10/19/2017  17:44:39.640096	10/19/2017  17:44:39.640096	10/19/2017  17:44:39.640096
delta t	0.001000	0.001000	0.001000	0.001000	0.001000	0.001000	0.001000	0.001000

time	Y[0]	Y[1]	Y[2]	Y[3]	Y[4]	Y[5]	Y[6]	Y[7]
10/19/2017  17:44:39.628896	1.051159E+0	1.817166E-3	1.071021E-3	4.519663E-3	5.683583E-3	2.121490E-3	2.758813E-3	2.412980E-3
10/19/2017  17:44:39.629896	1.074493E+0	5.566973E-3	1.191264E-3	2.511125E-4	5.482551E-4	5.685743E-3	1.391428E-2	1.322747E-3
10/19/2017  17:44:39.630896	1.562569E-1	1.324170E-3	1.184426E-3	4.550323E-4	5.646558E-3	4.517015E-5	4.519554E-3	4.870085E-4
10/19/2017  17:44:39.631896	4.513975E-1	4.478026E-3	3.071879E-3	2.899805E-3	2.857839E-3	3.366170E-3	3.564749E-3	6.093699E-3
10/19/2017  17:44:39.632896	2.755004E-1	4.105984E-3	1.925805E-3	1.410939E-2	5.214568E-3	1.679855E-2	3.222367E-3	4.359607E-3
10/19/2017  17:44:39.633896	6.978800E-1	9.112334E-3	2.991082E-3	8.317103E-3	3.778589E-3	2.347785E-3	1.291310E-2	3.708124E-4
10/19/2017  17:44:39.634896	6.914252E-1	2.539921E-3	2.193587E-3	1.440565E-3	6.031085E-4	2.029789E-3	2.873742E-4	5.800382E-3
10/19/2017  17:44:39.635896	5.603918E-1	1.335159E-2	1.117417E-3	1.141660E-3	2.618519E-3	3.754501E-3	1.566084E-3	3.464032E-3
10/19/2017  17:44:39.636896	1.175629E+0	9.302543E-3	3.707404E-3	1.094811E-3	3.603690E-3	3.408245E-3	2.484926E-3	9.601084E-4
10/19/2017  17:44:39.637896	1.345414E+0	8.521302E-3	4.045031E-4	9.627185E-3	4.149052E-3	8.546304E-3	7.242451E-4	7.388778E-3
10/19/2017  17:44:39.638896	5.979703E-2	6.451775E-4	3.591045E-3	4.650745E-3	6.532879E-3	8.040487E-4	1.048195E-2	7.129915E-4
10/19/2017  17:44:39.639896	1.635878E+0	5.769292E-3	2.342679E-3	5.013975E-3	1.458661E-2	2.440427E-3	4.924526E-4	5.324880E-4
10/19/2017  17:44:39.640896	1.112100E+0	2.805723E-3	5.830577E-3	6.728158E-3	2.154852E-3	2.801332E-3	1.687865E-3	6.311204E-3
10/19/2017  17:44:39.641896	6.795596E-1	7.810523E-3	4.493160E-3	1.087451E-2	3.792489E-3	2.173078E-3	3.101962E-3	7.172844E-3
10/19/2017  17:44:39.642896	9.039442E-1	1.840511E-3	5.572200E-3	3.209641E-3	9.195836E-3	6.947881E-3	1.743626E-3	1.304242E-2
10/19/2017  17:44:39.643896	3.114712E-1	1.671412E-3	3.252164E-3	4.442399E-3	8.249722E-3	6.813132E-3	5.261762E-3	8.385350E-3
10/19/2017  17:44:39.644896	5.664239E-1	5.228275E-4	6.470226E-3	3.224108E-3	5.852572E-3	7.662554E-4	4.845317E-3	7.179321E-3
10/19/2017  17:44:39.645896	2.624245E-1	1.762022E-3	2.112818E-3	2.363563E-3	4.015872E-3	9.410106E-4	3.382606E-3	1.891511E-3
10/19/2017  17:44:39.646896	8.057981E-1	3.681349E-3	2.784449E-3	3.991062E-4	2.518915E-3	5.794656E-3	6.135143E-3	3.307736E-3
10/19/2017  17:44:39.647896	1.760837E+0	8.697999E-3	5.495223E-3	5.254006E-5	1.324631E-3	1.272776E-4	2.731324E-3	8.071287E-3
10/19/2017  17:44:39.648896	1.035668E+0	3.013511E-3	2.574902E-3	2.161659E-3	2.389873E-3	1.147056E-2	1.588325E-2	3.674682E-3
10/19/2017  17:44:39.649896	3.136465E-2	7.939288E-3	6.377306E-3	6.646853E-3	9.247208E-3	3.643091E-3	5.500122E-3	1.055960E-2
10/19/2017  17:44:39.650896	1.080019E+0	6.125844E-3	1.399418E-2	4.548089E-3	5.569249E-3	2.489929E-3	1.222615E-2	8.144720E-3
10/19/2017  17:44:39.651896	9.239548E-1	2.340478E-3	5.372183E-3	1.040615E-3	3.223714E-3	4.890590E-4	1.296757E-3	1.037638E-3
10/19/2017  17:44:39.652896	3.104906E+0	1.052916E-4	3.608522E-3	2.778827E-3	3.712292E-4	1.644245E-3	3.566147E-3	6.536725E-3
10/19/2017  17:44:39.653896	1.474979E+0	4.786378E-4	6.136043E-3	4.319712E-4	6.218293E-4	8.666538E-3	5.685849E-3	1.255116E-3
10/19/2017  17:44:39.654896	2.562828E-1	1.080970E-2	9.652056E-4	4.092926E-4	2.737924E-3	1.957577E-3	5.164921E-3	1.016418E-2
10/19/2017  17:44:39.655896	1.393547E+0	3.786699E-3	6.081053E-4	7.555051E-3	1.783273E-3	5.356193E-4	5.403819E-3	3.644086E-3
10/19/2017  17:44:39.656896	1.688219E+0	6.417832E-3	2.626424E-3	6.308796E-3	2.979836E-3	9.784212E-3	8.877439E-3	2.214648E-3
10/19/2017  17:44:39.657896	1.854493E+0	6.527299E-3	3.447537E-3	1.627404E-3	3.555775E-4	2.739609E-3	1.157050E-3	5.617867E-3
10/19/2017  17:44:39.658896	1.797584E+0	2.070202E-3	5.280497E-3	7.699078E-3	3.621187E-3	2.244187E-3	7.251935E-3	4.784005E-3
10/19/2017  17:44:39.659896	1.424781E+0	8.228326E-4	3.336722E-4	4.753538E-3	1.225007E-2	5.763258E-3	4.343173E-3	2.750655E-3
10/19/2017  17:44:39.660896	9.949588E-1	1.463775E-3	3.391288E-3	7.478624E-3	1.076713E-2	5.853006E-4	1.879468E-3	7.685989E-4
								
10/19/2017  17:44:39.661896	6.320541E-1	1.260454E-3	3.069925E-3	4.302563E-3	1.129933E-2	8.415136E-3	3.592011E-3	1.083723E-2
10/19/2017  17:44:39.662896	2.091854E-1	4.796944E-3	6.642390E-3	1.887349E-3	2.386873E-7	2.426779E-3	1.619735E-3	5.954788E-3
10/19/2017  17:44:39.663896	2.472221E-1	7.453700E-3	4.229102E-3	1.380524E-2	3.215744E-3	5.539390E-3	3.336991E-3	4.163109E-3
10/19/2017  17:44:39.664896	6.603216E-1	1.659035E-3	7.653921E-3	3.760177E-3	5.009065E-3	5.983203E-3	2.096417E-3	2.053737E-3
10/19/2017  17:44:39.665896	6.652900E-1	3.106391E-3	5.665595E-3	6.204824E-3	3.718580E-3	3.700884E-3	7.088061E-3	1.767476E-3
10/19/2017  17:44:39.666896	4.007089E-1	4.273086E-3	7.253672E-3	1.082935E-2	4.594264E-3	1.888704E-3	2.541921E-3	9.443434E-3
10/19/2017  17:44:39.667896	2.641679E-1	5.535128E-3	2.547084E-3	1.690411E-3	6.648039E-3	1.497984E-3	6.308071E-3	6.657390E-3
10/19/2017  17:44:39.668896	2.938529E-1	1.097575E-2	2.499081E-3	5.263279E-3	1.078552E-2	7.522617E-3	8.065925E-3	2.240108E-5
10/19/2017  17:44:39.669896	4.757699E-1	8.754256E-3	4.375072E-3	2.979178E-3	3.409759E-3	3.362678E-3	3.591067E-3	6.102500E-3
10/19/2017  17:44:39.670896	5.029853E-1	4.225424E-3	7.466934E-4	1.746709E-3	2.618174E-4	6.261166E-3	2.489905E-3	6.697615E-3
10/19/2017  17:44:39.671896	4.771026E-1	5.113492E-3	2.741501E-4	3.198772E-3	1.421031E-3	3.615807E-3	1.614691E-3	3.958774E-3
10/19/2017  17:44:39.672896	3.892555E-1	5.186136E-3	2.998127E-3	3.993028E-3	7.750226E-3	1.428717E-2	3.039478E-3	6.091544E-3
10/19/2017  17:44:39.673896	3.475350E-1	3.270617E-3	1.133419E-2	5.962971E-3	3.268067E-3	3.940394E-3	8.337356E-3	2.445020E-4
10/19/2017  17:44:39.674896	3.305967E-1	4.219475E-3	8.049591E-4	7.453973E-3	3.146288E-4	1.056065E-3	3.413566E-3	1.204354E-2
10/19/2017  17:44:39.675896	2.019313E-1	7.504058E-3	6.141288E-3	3.119754E-3	5.377252E-4	4.994804E-3	8.328521E-3	7.828502E-3
10/19/2017  17:44:39.676896	1.060779E-1	1.965539E-3	2.789021E-3	1.759181E-3	1.314216E-3	2.447400E-3	3.401774E-3	7.405530E-3
10/19/2017  17:44:39.677896	8.976044E-2	4.234508E-3	1.157893E-2	3.434955E-3	7.707342E-3	6.779538E-3	6.327970E-3	3.481607E-3
10/19/2017  17:44:39.678896	2.388077E-4	1.086444E-2	5.388193E-3	4.325976E-3	5.459773E-4	8.876724E-3	2.426634E-3	5.830813E-3
10/19/2017  17:44:39.679896	6.106611E-2	1.297894E-3	6.916071E-3	4.608838E-4	5.907453E-3	1.349556E-3	5.582403E-3	9.248044E-3
10/19/2017  17:44:39.680896	1.568138E-1	6.269466E-4	3.873977E-3	1.393266E-2	2.669919E-3	1.472280E-3	9.975981E-4	5.675559E-3
10/19/2017  17:44:39.681896	2.128815E-1	4.283360E-3	1.030643E-2	4.509210E-3	2.290781E-3	8.278797E-4	2.992363E-3	1.097678E-3
10/19/2017  17:44:39.682896	2.359784E-1	2.935225E-3	5.361554E-5	1.743268E-2	8.946350E-4	6.740201E-5	1.972468E-3	7.229246E-3
10/19/2017  17:44:39.683896	1.273318E-1	1.683813E-4	2.338324E-3	4.238353E-3	6.766835E-3	5.164351E-4	4.797832E-3	7.544999E-3
10/19/2017  17:44:39.684896	1.772797E-1	9.452006E-5	5.661353E-3	6.955725E-4	2.275320E-3	6.906032E-3	3.470487E-3	5.835198E-3
10/19/2017  17:44:39.685896	3.713853E-1	7.872720E-3	2.746379E-3	5.500809E-3	7.639041E-3	5.680266E-3	4.244865E-3	9.851320E-3
10/19/2017  17:44:39.686896	3.931797E-1	3.914749E-5	4.347000E-3	4.210732E-3	7.753628E-3	8.774306E-3	1.670581E-3	2.738428E-3
10/19/2017  17:44:39.687896	2.437920E-2	1.695354E-2	1.658722E-3	1.193234E-2	4.459609E-3	1.023315E-2	7.961262E-4	1.792773E-3
10/19/2017  17:44:39.688896	6.699475E-1	8.078610E-3	9.138926E-3	3.047574E-4	8.023416E-3	3.150772E-3	5.761247E-3	3.632972E-3
10/19/2017  17:44:39.689896	1.327531E+0	4.707837E-3	1.111576E-2	2.360315E-4	2.987169E-3	7.341002E-3	2.700561E-3	4.670155E-3
10/19/2017  17:44:39.690896	1.132795E+0	1.858511E-3	6.179699E-4	5.692936E-4	6.360597E-3	6.964399E-3	4.298870E-3	3.091755E-3
10/19/2017  17:44:39.691896	6.024803E-1	7.786362E-3	3.865815E-3	1.068412E-2	1.484354E-3	1.318540E-2	7.760733E-3	4.046473E-4
10/19/2017  17:44:39.692896	8.771972E-1	4.745015E-3	6.215679E-3	6.105866E-3	5.689403E-3	6.139221E-3	4.450379E-3	8.468908E-3
10/19/2017  17:44:39.693896	1.741434E+0	7.544355E-3	4.967083E-3	1.949277E-3	1.599930E-3	1.342527E-2	4.040815E-3	4.571890E-3
								
10/19/2017  17:44:39.694896	1.360838E+0	1.550575E-3	5.458870E-3	2.711643E-3	7.032329E-3	7.346152E-3	9.837799E-4	4.366869E-3
10/19/2017  17:44:39.695896	7.008251E-1	2.995287E-3	6.658007E-3	7.324730E-4	4.341741E-3	1.150375E-2	5.047383E-3	4.334086E-3
10/19/2017  17:44:39.696896	7.290216E-1	7.549650E-3	3.428734E-3	1.279362E-2	4.946912E-3	3.004080E-3	6.838812E-3	2.880061E-3
10/19/2017  17:44:39.697896	6.808531E-1	1.036228E-2	8.934979E-3	2.956291E-3	5.128920E-3	4.566648E-3	4.478059E-3	1.254682E-3
10/19/2017  17:44:39.698896	2.928870E-1	2.499606E-3	5.773600E-3	8.390386E-3	9.123659E-3	5.056396E-3	1.101541E-2	1.424898E-2
10/19/2017  17:44:39.699896	7.058077E-1	4.532390E-3	1.289644E-3	1.090977E-2	3.012068E-3	3.900984E-4	1.993684E-3	1.035856E-3
10/19/2017  17:44:39.700896	2.428316E-3	1.555027E-3	1.158192E-2	4.643596E-3	5.718136E-3	4.652097E-3	1.185366E-2	7.143006E-3
10/19/2017  17:44:39.701896	7.635546E-1	7.141364E-3	4.412324E-3	1.388444E-2	9.536928E-3	3.460722E-3	1.104536E-2	4.996091E-4
10/19/2017  17:44:39.702896	8.973370E-1	4.073914E-3	1.044278E-2	7.592294E-3	4.086577E-3	5.445469E-3	9.857879E-5	1.115441E-2
10/19/2017  17:44:39.703896	5.151567E-1	2.634911E-3	5.275411E-3	1.796139E-2	7.598030E-3	1.688282E-3	8.691080E-3	8.634510E-3
10/19/2017  17:44:39.704896	4.127424E-2	4.733837E-4	6.370893E-3	9.464795E-3	5.946839E-3	2.065156E-3	1.361062E-3	3.820815E-3
10/19/2017  17:44:39.705896	1.354743E-1	2.330860E-3	5.627406E-3	9.675676E-3	2.584324E-4	2.238915E-3	4.691052E-3	1.321805E-3
10/19/2017  17:44:39.706896	3.283198E-1	4.723171E-3	8.574740E-3	7.056177E-3	5.941951E-3	6.224471E-3	3.716413E-3	3.824737E-3
10/19/2017  17:44:39.707896	4.495190E-2	1.361622E-3	3.630959E-3	8.581559E-4	8.423817E-4	1.011342E-2	1.055016E-2	1.167765E-3
10/19/2017  17:44:39.708896	1.124929E+0	4.972346E-3	6.186936E-3	8.925147E-3	1.096110E-2	4.584648E-4	8.170281E-3	9.503614E-3
10/19/2017  17:44:39.709896	8.421632E-1	1.266644E-3	5.045946E-3	9.846113E-4	7.816505E-3	9.534303E-4	9.828863E-4	1.668469E-4
10/19/2017  17:44:39.710896	1.415875E-1	1.024436E-3	4.300844E-3	6.103602E-3	8.591622E-3	6.370709E-3	4.590047E-4	4.068309E-3
10/19/2017  17:44:39.711896	6.363117E-1	8.104184E-4	7.842488E-3	1.953589E-3	9.784453E-3	4.387065E-3	2.054810E-3	7.068254E-5
10/19/2017  17:44:39.712896	8.256423E-1	5.340146E-3	1.465511E-3	6.018591E-4	6.215636E-3	1.169497E-3	3.175707E-3	2.434129E-3
10/19/2017  17:44:39.713896	1.609133E-1	1.333363E-2	2.457904E-3	2.414351E-3	1.436656E-3	1.543605E-3	6.108489E-3	1.785807E-3
10/19/2017  17:44:39.714896	1.255620E+0	3.920563E-4	3.460310E-3	4.166998E-3	3.680513E-3	6.856411E-3	6.532078E-4	3.220862E-3
10/19/2017  17:44:39.715896	5.045571E-1	8.770182E-4	8.855027E-3	6.992181E-3	5.442870E-3	6.630782E-3	1.180527E-3	2.196937E-3
10/19/2017  17:44:39.716896	4.553551E-1	5.155848E-3	2.577031E-3	4.898338E-3	5.522650E-3	3.582281E-3	1.856193E-3	9.303695E-3
10/19/2017  17:44:39.717896	2.105816E-2	1.366969E-3	1.357900E-3	1.383351E-2	3.800009E-3	2.511090E-3	4.345542E-3	3.193403E-3
10/19/2017  17:44:39.718896	2.820224E-1	2.909974E-3	3.516556E-3	3.886038E-3	4.112444E-4	6.061876E-3	6.283765E-3	2.657302E-3
10/19/2017  17:44:39.719896	3.764675E-1	5.542807E-3	1.967873E-4	2.438872E-3	9.677817E-3	2.275448E-3	4.308296E-3	2.129207E-3
10/19/2017  17:44:39.720896	5.144060E-1	3.398993E-3	5.848155E-3	8.622578E-3	7.058106E-3	2.776592E-3	3.258056E-3	2.351247E-3
10/19/2017  17:44:39.721896	6.994381E-1	2.672673E-3	8.933772E-3	2.568037E-3	6.714168E-3	9.551114E-3	6.346807E-3	8.815278E-3
10/19/2017  17:44:39.722896	3.830133E-1	5.910870E-3	8.021935E-4	1.941060E-2	6.111396E-3	3.238885E-3	9.598339E-3	1.203536E-2
10/19/2017  17:44:39.723896	1.185094E+0	3.420734E-3	8.727095E-3	8.313276E-4	8.533336E-3	8.914690E-3	1.132595E-2	7.796791E-3
10/19/2017  17:44:39.724896	7.415090E-1	8.907861E-3	8.058820E-4	1.918506E-2	2.665314E-3	2.297347E-3	1.295639E-3	3.541606E-3
10/19/2017  17:44:39.725896	3.801684E-1	3.491376E-3	1.013283E-2	3.301112E-3	7.279886E-3	9.240106E-4	4.898750E-3	1.709915E-3
10/19/2017  17:44:39.726896	2.095822E-1	2.189121E-3	3.905777E-3	8.902803E-3	1.184126E-3	2.063967E-3	1.820073E-4	6.654148E-3
								
10/19/2017  17:44:39.727896	8.048889E-2	2.435938E-3	2.364580E-3	3.584173E-3	4.175009E-3	3.760215E-3	6.813135E-3	3.043293E-3
10/19/2017  17:44:39.728896	2.340226E-1	2.998439E-3	1.266491E-4	3.999017E-3	4.474060E-3	3.483625E-3	6.543215E-3	2.900767E-3
10/19/2017  17:44:39.729896	3.767691E-1	4.118681E-3	1.079833E-2	9.643872E-3	7.453123E-3	4.383292E-3	8.162163E-3	7.106523E-4
10/19/2017  17:44:39.730896	3.200905E-1	8.415913E-3	4.193082E-4	3.071821E-3	5.347361E-3	6.803285E-3	7.486215E-3	1.439926E-3
10/19/2017  17:44:39.731896	3.443464E-1	3.734357E-3	1.593089E-2	7.351571E-3	2.662810E-3	1.429144E-2	4.352737E-4	3.875179E-3
10/19/2017  17:44:39.732896	4.916925E-1	6.913168E-3	1.541696E-3	1.206032E-3	1.126887E-2	4.004351E-3	1.975511E-3	3.113329E-3
10/19/2017  17:44:39.733896	5.004401E-1	3.709830E-3	6.281792E-3	1.393307E-3	2.783586E-3	1.286743E-2	6.701156E-4	4.273725E-4
10/19/2017  17:44:39.734896	4.926643E-1	9.839642E-3	6.728719E-3	3.425094E-3	2.738094E-3	4.870972E-3	6.155046E-3	2.762819E-3
10/19/2017  17:44:39.735896	2.778180E-1	1.130811E-2	4.494674E-4	8.346192E-3	4.709969E-5	1.733913E-2	5.085710E-3	9.905366E-3
10/19/2017  17:44:39.736896	2.113328E-1	7.330179E-3	3.419485E-3	1.337303E-2	3.664589E-3	2.580988E-3	7.595611E-3	6.697904E-4
10/19/2017  17:44:39.737896	2.175958E-1	1.797023E-3	4.516008E-3	4.460047E-3	5.580007E-4	1.264935E-2	3.495827E-3	5.223596E-3
10/19/2017  17:44:39.738896	4.830202E-2	2.662459E-3	4.970441E-3	7.000531E-3	4.753438E-3	1.726286E-3	7.950553E-3	1.661043E-3
10/19/2017  17:44:39.739896	8.204215E-2	1.064184E-3	4.722664E-3	3.859373E-3	6.578415E-3	1.191688E-3	6.062075E-3	4.567845E-3
10/19/2017  17:44:39.740896	1.142647E-1	2.125832E-3	9.926328E-3	6.510982E-3	1.084977E-3	9.403692E-4	1.015899E-2	1.006315E-2
10/19/2017  17:44:39.741896	8.279622E-2	5.984066E-3	8.075813E-3	1.631598E-2	1.568686E-2	1.231413E-3	1.739364E-3	6.183720E-3
10/19/2017  17:44:39.742896	5.497479E-2	1.064840E-4	1.373572E-2	5.155353E-3	5.184611E-3	2.373564E-3	7.643658E-3	1.201590E-3
10/19/2017  17:44:39.743896	3.122238E-1	3.775789E-3	1.314530E-4	2.186983E-2	3.851719E-3	3.216022E-3	7.883655E-4	2.045492E-3
10/19/2017  17:44:39.744896	4.571447E-1	4.351519E-3	1.242228E-3	1.185603E-2	1.188427E-3	2.442841E-3	5.149368E-4	1.935721E-3
10/19/2017  17:44:39.745896	4.176639E-1	1.014303E-3	2.148043E-3	2.362680E-3	1.575539E-3	2.175391E-3	8.251761E-3	2.223004E-3
10/19/2017  17:44:39.746896	5.376946E-1	1.087923E-3	3.806998E-3	3.191029E-3	4.191419E-3	7.204075E-3	2.078513E-4	9.439705E-3
10/19/2017  17:44:39.747896	2.303564E-1	2.465484E-4	1.097578E-2	3.586372E-3	1.077244E-2	2.334558E-3	8.818387E-3	3.759247E-3
10/19/2017  17:44:39.748896	3.710994E-2	6.296907E-3	4.798751E-3	1.260253E-2	1.061601E-3	4.873047E-3	3.619482E-3	8.084868E-3
10/19/2017  17:44:39.749896	1.026118E+0	2.235063E-3	1.962445E-3	5.686895E-4	4.931482E-3	2.866062E-3	8.230511E-5	3.305830E-3
10/19/2017  17:44:39.750896	8.224574E-1	5.272657E-3	1.201646E-2	6.620141E-3	8.351957E-5	8.602988E-3	2.130982E-3	7.946408E-3
10/19/2017  17:44:39.751896	4.816720E-1	9.298114E-3	7.531434E-3	2.569268E-4	1.095843E-2	1.128650E-3	4.633814E-3	1.047295E-5
10/19/2017  17:44:39.752896	2.371048E+0	5.370049E-3	1.969995E-3	1.043500E-2	4.729475E-3	5.038831E-3	3.657146E-3	7.010538E-3
10/19/2017  17:44:39.753896	2.837467E+0	1.554673E-2	5.719107E-3	3.676862E-3	9.568318E-3	1.006856E-3	4.463428E-3	2.779217E-3
10/19/2017  17:44:39.754896	6.499471E-1	5.019333E-3	2.400790E-3	2.933750E-3	4.480194E-3	9.517185E-3	3.404044E-3	3.959024E-3
10/19/2017  17:44:39.755896	2.537616E+0	1.589128E-2	5.074677E-3	2.870781E-3	1.459840E-2	2.902729E-3	3.900082E-3	3.642385E-3
10/19/2017  17:44:39.756896	4.015547E+0	3.304477E-3	3.846249E-3	8.655641E-3	4.691481E-3	1.030425E-2	2.043560E-4	2.008094E-3
10/19/2017  17:44:39.757896	2.679598E+0	2.827407E-3	5.090529E-3	9.426722E-3	1.228104E-2	2.055455E-3	8.742491E-3	1.305609E-3
10/19/2017  17:44:39.758896	1.676528E+0	6.432375E-3	4.490936E-3	9.686181E-4	1.935514E-3	5.479190E-3	7.562378E-4	7.431055E-4
10/19/2017  17:44:39.759896	5.072223E-1	1.424582E-4	1.228992E-4	3.517987E-3	5.445801E-3	9.057985E-4	1.048005E-2	1.684439E-3
								
10/19/2017  17:44:39.760896	3.587703E+0	2.284192E-3	5.044049E-3	5.648308E-4	3.082004E-3	8.726088E-3	1.047012E-2	2.936155E-3
10/19/2017  17:44:39.761896	3.506851E+0	7.365473E-3	7.664272E-3	1.147625E-2	3.272485E-3	5.257140E-3	4.435324E-3	1.468081E-3
10/19/2017  17:44:39.762896	2.101847E+0	4.202071E-3	2.577155E-3	1.989536E-2	7.001875E-3	5.401442E-3	5.679724E-3	3.611549E-3
10/19/2017  17:44:39.763896	1.386764E+0	9.841833E-4	3.139920E-3	2.765557E-3	4.733657E-3	4.976942E-3	5.679976E-4	5.501363E-3
10/19/2017  17:44:39.764896	1.089696E+0	3.956434E-3	3.073541E-3	4.566982E-3	3.059521E-3	3.061705E-3	1.028035E-2	3.450132E-3
10/19/2017  17:44:39.765896	9.188013E-1	4.652416E-3	1.401798E-3	1.379318E-3	2.448215E-3	1.710616E-3	4.729576E-3	1.265596E-2
10/19/2017  17:44:39.766896	3.125348E-1	1.343505E-3	1.214295E-2	4.581909E-3	7.585290E-3	7.266312E-3	7.614514E-3	3.138428E-3
10/19/2017  17:44:39.767896	2.134026E-1	2.926093E-3	7.700500E-3	2.992160E-4	2.050961E-5	2.113815E-3	2.742158E-3	9.064309E-3
10/19/2017  17:44:39.768896	8.647513E-1	4.327715E-3	5.722720E-3	5.404954E-3	6.767526E-3	3.288557E-3	8.458156E-3	2.145541E-3
10/19/2017  17:44:39.769896	2.334693E+0	3.604576E-3	5.464669E-3	6.151363E-3	3.635029E-3	8.323348E-3	5.405013E-3	4.755526E-3
10/19/2017  17:44:39.770896	1.134940E+0	2.167786E-3	9.163376E-3	6.079699E-3	1.614525E-3	3.328765E-3	9.424517E-3	6.138119E-3
10/19/2017  17:44:39.771896	2.606963E-1	6.878866E-3	6.787312E-4	8.494592E-3	1.182285E-2	2.387785E-4	2.988331E-3	4.354326E-3
10/19/2017  17:44:39.772896	8.763690E-1	2.190327E-3	6.682486E-3	1.312059E-3	6.969191E-3	5.614363E-3	6.415453E-3	8.953357E-4
10/19/2017  17:44:39.773896	2.501261E-1	3.767067E-4	4.200046E-3	1.244058E-3	6.729212E-3	1.129929E-2	5.964985E-3	6.830540E-4
10/19/2017  17:44:39.774896	2.533674E-1	1.776264E-2	5.035146E-4	1.104358E-3	8.589167E-3	4.680154E-3	4.978318E-3	2.460245E-3
10/19/2017  17:44:39.775896	1.889003E+0	9.278029E-3	1.830579E-3	9.172267E-4	7.019130E-3	3.859061E-3	5.282336E-3	6.669245E-3
10/19/2017  17:44:39.776896	3.034634E+0	1.720123E-2	8.749001E-4	1.263886E-2	5.908239E-3	2.826899E-3	2.994980E-3	2.293900E-3
10/19/2017  17:44:39.777896	3.343955E+0	5.958210E-4	4.375024E-4	5.721083E-4	5.397145E-3	1.628980E-5	1.829401E-3	3.894663E-4
10/19/2017  17:44:39.778896	4.023638E-1	1.694606E-3	1.012354E-4	2.881623E-3	1.388678E-2	2.252743E-3	2.925905E-3	3.973778E-3
10/19/2017  17:44:39.779896	4.627944E-1	2.987865E-3	2.135591E-3	2.178525E-4	2.201698E-3	5.396540E-4	6.959630E-4	3.706183E-3
10/19/2017  17:44:39.780896	3.631110E-1	1.526779E-3	6.596938E-4	1.232776E-2	3.542438E-5	1.783944E-3	5.051206E-3	9.819041E-3
10/19/2017  17:44:39.781896	1.889338E+0	5.571563E-3	1.024694E-2	2.075316E-2	1.299798E-3	2.939466E-3	3.934772E-3	3.147611E-3
10/19/2017  17:44:39.782896	2.633671E+0	4.888680E-4	1.082253E-2	1.950247E-3	6.136953E-3	2.407850E-3	7.161657E-3	3.388837E-3
10/19/2017  17:44:39.783896	1.658168E+0	2.107724E-3	8.667123E-4	9.798308E-3	1.776258E-3	3.456773E-3	4.503695E-3	1.121623E-2
10/19/2017  17:44:39.784896	1.104320E+0	1.149990E-3	6.849840E-4	2.190654E-3	2.390973E-3	6.212283E-3	3.562897E-3	2.873857E-3
10/19/2017  17:44:39.785896	8.219427E-1	3.110212E-3	4.487919E-3	3.309490E-3	7.519292E-3	9.557496E-3	3.709933E-3	3.212587E-3
10/19/2017  17:44:39.786896	3.682770E-1	1.896991E-3	3.783235E-4	3.689382E-4	2.952060E-3	5.303382E-3	2.210464E-3	1.088412E-2
10/19/2017  17:44:39.787896	4.783602E-2	3.229168E-3	2.241492E-3	6.842078E-4	1.275570E-4	4.054190E-3	6.219962E-3	5.916357E-4
10/19/2017  17:44:39.788896	1.002973E-1	6.094696E-3	6.249636E-3	5.062184E-3	2.027314E-3	4.982312E-3	3.259394E-3	3.812152E-3
10/19/2017  17:44:39.789896	1.589455E-1	4.684391E-3	1.197302E-3	5.971378E-3	6.948511E-3	3.966400E-3	3.033380E-3	7.743881E-3
10/19/2017  17:44:39.790896	2.274363E-1	9.116159E-4	7.762631E-3	2.326572E-3	2.488585E-4	7.149098E-3	5.497774E-3	3.896907E-3
10/19/2017  17:44:39.791896	2.969013E-1	6.467307E-3	3.163997E-3	3.526638E-5	4.731062E-3	4.687870E-4	4.373774E-3	7.927427E-4
10/19/2017  17:44:39.792896	3.288745E-1	6.717254E-3	7.106091E-5	2.579120E-3	1.122866E-3	2.264340E-3	3.361436E-3	4.859506E-3
								
10/19/2017  17:44:39.793896	3.680140E-1	9.668989E-3	1.830280E-3	9.956635E-3	1.138108E-3	7.050801E-3	1.511292E-3	1.033159E-3
10/19/2017  17:44:39.794896	4.023412E-1	1.210425E-3	9.120800E-3	2.432226E-3	5.612819E-3	7.169494E-3	7.607180E-3	3.434425E-3
10/19/2017  17:44:39.795896	3.327629E-1	9.872472E-3	1.023633E-3	9.848032E-3	1.252219E-3	9.600086E-3	2.495162E-3	1.300386E-4
10/19/2017  17:44:39.796896	3.429558E-1	2.368609E-3	7.230393E-3	1.242228E-2	7.530998E-3	3.273436E-3	4.931742E-3	2.318140E-3
10/19/2017  17:44:39.797896	4.461256E-1	2.445818E-3	1.543067E-3	4.914782E-3	1.374700E-2	2.710128E-3	4.828892E-3	9.404229E-3
10/19/2017  17:44:39.798896	2.728455E-1	6.765865E-3	2.749928E-3	4.267705E-3	2.495435E-3	6.008682E-3	4.273502E-3	1.109595E-2
10/19/2017  17:44:39.799896	4.319871E-2	2.253292E-4	3.166822E-3	3.140718E-4	8.296191E-3	6.954523E-3	4.586862E-3	6.717203E-3
10/19/2017  17:44:39.800896	2.753246E-1	5.908009E-4	2.950798E-3	9.004024E-3	8.716342E-4	9.954939E-4	1.785196E-3	8.579803E-3
10/19/2017  17:44:39.801896	9.008565E-1	3.121614E-3	4.526512E-3	1.993823E-3	2.412835E-3	4.232767E-3	4.567053E-5	9.194189E-3
10/19/2017  17:44:39.802896	1.858856E+0	9.923127E-4	3.132058E-3	1.525719E-3	2.864360E-3	1.101953E-2	3.090690E-3	3.313406E-3
10/19/2017  17:44:39.803896	1.176652E+0	5.630326E-4	5.956920E-6	5.071190E-3	7.812253E-3	1.880499E-3	8.751380E-3	4.794483E-3
10/19/2017  17:44:39.804896	7.387866E-1	1.157173E-2	5.890330E-3	1.266831E-2	3.929584E-3	5.764404E-3	4.479688E-3	6.477744E-4
10/19/2017  17:44:39.805896	2.107719E+0	5.359691E-3	5.024273E-3	3.979867E-3	8.620593E-4	8.194250E-3	1.794226E-3	1.165780E-4
10/19/2017  17:44:39.806896	4.522175E+0	4.925156E-3	3.289862E-3	1.601176E-2	5.003712E-3	2.108739E-3	7.472831E-3	2.615443E-3
10/19/2017  17:44:39.807896	3.804528E+0	2.806010E-3	9.850236E-3	1.002557E-2	9.934019E-3	6.417129E-3	3.716866E-3	1.941835E-3
10/19/2017  17:44:39.808896	7.747928E-1	7.723780E-4	9.080304E-3	1.054522E-2	5.724935E-3	6.446192E-4	3.238967E-4	5.327414E-3
10/19/2017  17:44:39.809896	2.744192E+0	4.914503E-3	3.993187E-3	1.730936E-3	1.269126E-2	1.156411E-3	5.709287E-3	5.087425E-3
10/19/2017  17:44:39.810896	3.200494E+0	4.990215E-3	6.521390E-3	1.117939E-3	1.434359E-2	3.462820E-3	3.161065E-3	9.140159E-4
10/19/2017  17:44:39.811896	2.776598E+0	5.446935E-3	2.524343E-3	9.315251E-3	9.741178E-3	6.545523E-4	2.425660E-3	4.462908E-3
10/19/2017  17:44:39.812896	1.668376E+0	1.049490E-2	3.880832E-3	5.149893E-3	7.921190E-3	2.918000E-3	4.135380E-3	5.792545E-3
10/19/2017  17:44:39.813896	8.911061E-1	7.654163E-4	3.606337E-3	3.626837E-3	1.195072E-2	1.797708E-2	4.274609E-3	3.614319E-3
10/19/2017  17:44:39.814896	4.205921E-1	6.155127E-3	1.314927E-4	9.559113E-3	6.981374E-3	1.242276E-2	8.296968E-4	4.021479E-3
10/19/2017  17:44:39.815896	9.325908E-2	8.340729E-3	1.237931E-2	7.244840E-3	8.834202E-3	4.111186E-3	1.936234E-4	3.420935E-4
10/19/2017  17:44:39.816896	1.159793E-1	2.724055E-3	7.232601E-3	1.889013E-2	1.866183E-3	1.304597E-3	2.882770E-3	7.937709E-3
10/19/2017  17:44:39.817896	2.400813E-1	1.511609E-2	6.675853E-3	1.170594E-2	4.462289E-3	1.513224E-3	4.328187E-3	7.657578E-3
10/19/2017  17:44:39.818896	2.512857E-1	1.422338E-3	1.021166E-2	4.195947E-4	6.170439E-3	1.139093E-3	8.543581E-4	1.425191E-3
10/19/2017  17:44:39.819896	1.422916E-1	3.153983E-3	3.669881E-4	5.709137E-3	2.229411E-3	1.163961E-3	6.331396E-4	2.884583E-3
10/19/2017  17:44:39.820896	1.386813E-2	1.020458E-2	6.887742E-3	1.163433E-2	8.292187E-3	1.540765E-3	4.392727E-3	1.439307E-2
10/19/2017  17:44:39.821896	2.478318E-1	6.116159E-4	1.670350E-3	1.126590E-2	1.010074E-2	1.080043E-3	1.737476E-3	2.353419E-3
10/19/2017  17:44:39.822896	3.316213E-1	1.131836E-2	7.202555E-3	9.984633E-3	4.533662E-3	3.274204E-3	1.422759E-3	3.379141E-3
10/19/2017  17:44:39.823896	1.602571E+0	6.963018E-3	1.965120E-3	4.170645E-3	5.266029E-3	1.030450E-2	6.786130E-3	4.041514E-4
10/19/2017  17:44:39.824896	2.622671E+0	3.451232E-3	1.145467E-2	3.782007E-3	3.215351E-3	7.643626E-3	8.831072E-3	7.641600E-3
10/19/2017  17:44:39.825896	1.679154E+0	9.136263E-3	4.661687E-3	7.608416E-3	2.136372E-3	1.077149E-2	1.730532E-3	1.400061E-2
								
10/19/2017  17:44:39.826896	4.716384E-1	6.156108E-3	1.393517E-2	1.486926E-4	2.722133E-3	5.228803E-3	2.733999E-3	6.877185E-4
10/19/2017  17:44:39.827896	7.122680E-1	2.168478E-3	1.874683E-3	1.007854E-3	1.452332E-3	2.589179E-3	8.075168E-4	4.359787E-3
10/19/2017  17:44:39.828896	1.893747E+0	5.036409E-3	3.456355E-3	5.529607E-3	4.504642E-3	7.090632E-3	2.953748E-3	6.080243E-3
10/19/2017  17:44:39.829896	2.224787E+0	5.690780E-3	5.821711E-3	3.858109E-3	2.093074E-3	6.834847E-3	5.915332E-3	3.579104E-3
10/19/2017  17:44:39.830896	1.425665E+0	4.136176E-3	1.052447E-3	4.469421E-3	6.001917E-3	4.845006E-3	3.204153E-3	1.134544E-2
10/19/2017  17:44:39.831896	1.127167E+0	1.218486E-2	7.224961E-3	8.344569E-3	9.833948E-3	7.863823E-4	4.574300E-3	8.716682E-3
10/19/2017  17:44:39.832896	4.466640E+0	8.743942E-4	1.595320E-3	1.410493E-2	6.785014E-3	1.572111E-2	9.560407E-4	5.832957E-3
10/19/2017  17:44:39.833896	3.157914E+0	2.878218E-3	2.854450E-3	6.686812E-3	4.444341E-3	9.612612E-3	1.725514E-3	6.360684E-3
10/19/2017  17:44:39.834896	1.457440E+0	9.083342E-5	8.608974E-3	3.484978E-3	7.326379E-3	2.465670E-3	5.183573E-3	2.175045E-3
10/19/2017  17:44:39.835896	4.201447E+0	9.801729E-3	1.138125E-3	6.857162E-3	1.016692E-2	4.023915E-3	3.187699E-3	4.545573E-3
10/19/2017  17:44:39.836896	3.211794E+0	1.116508E-2	7.048231E-3	8.616780E-3	5.780661E-6	1.239216E-2	1.179296E-4	5.734452E-3
10/19/2017  17:44:39.837896	1.061702E+0	1.152592E-3	3.923671E-3	2.873245E-3	3.749977E-3	2.559668E-3	7.673975E-3	4.373609E-4
10/19/2017  17:44:39.838896	3.633853E-1	1.056366E-3	4.287437E-3	8.976390E-3	6.318976E-3	7.470839E-3	4.310943E-3	1.996749E-4
10/19/2017  17:44:39.839896	8.738816E-1	1.711908E-3	1.918564E-3	4.852228E-4	1.188871E-2	2.239334E-3	7.387525E-3	9.893509E-3
10/19/2017  17:44:39.840896	1.210562E+0	5.264315E-3	3.694009E-4	8.183772E-3	2.095962E-3	1.113981E-4	7.264094E-3	2.861091E-3
10/19/2017  17:44:39.841896	9.279308E-1	3.018018E-3	3.243244E-4	9.864684E-3	2.300130E-3	2.875667E-3	2.442605E-3	8.525922E-3
10/19/2017  17:44:39.842896	3.957295E-1	1.374886E-4	6.754121E-3	1.206155E-2	1.096376E-2	1.033423E-2	4.275195E-3	4.664100E-3
10/19/2017  17:44:39.843896	1.773690E-1	3.921162E-3	4.092460E-3	5.727896E-3	5.384489E-3	2.010536E-3	3.070630E-3	2.286665E-3
10/19/2017  17:44:39.844896	8.852018E-1	1.943338E-3	1.953533E-3	2.014549E-2	1.495788E-3	1.474634E-3	1.909327E-3	7.433086E-3
10/19/2017  17:44:39.845896	4.581765E-1	1.394477E-3	2.424607E-3	8.779684E-4	4.938616E-3	2.916491E-3	5.181598E-3	4.774355E-3
10/19/2017  17:44:39.846896	2.375230E-1	6.898766E-3	1.181869E-3	2.093266E-3	1.468633E-3	5.250451E-3	1.285118E-2	5.270879E-3
10/19/2017  17:44:39.847896	7.393330E-1	1.599590E-3	7.344654E-3	6.452477E-3	3.346926E-3	3.897956E-3	1.252861E-3	6.976563E-3
10/19/2017  17:44:39.848896	5.961671E-1	3.890654E-3	5.035516E-4	1.522757E-2	4.247514E-3	7.275138E-3	7.883003E-3	1.540968E-4
10/19/2017  17:44:39.849896	3.797654E-1	3.001580E-3	1.566528E-2	1.278375E-3	3.552467E-3	1.071234E-2	5.283966E-3	4.571323E-3
10/19/2017  17:44:39.850896	6.725443E-1	3.727081E-3	7.875867E-3	5.322222E-4	2.011008E-3	6.143715E-3	1.180792E-3	9.186629E-4
10/19/2017  17:44:39.851896	2.714011E-1	8.495560E-3	7.731558E-3	1.930114E-3	2.717145E-3	5.985555E-3	4.750201E-4	7.347321E-3
10/19/2017  17:44:39.852896	5.553311E-1	9.225719E-3	2.983875E-3	5.468947E-3	6.786378E-4	1.337526E-3	5.865564E-3	8.247743E-3
10/19/2017  17:44:39.853896	5.892516E-1	9.181506E-3	1.067037E-2	3.590804E-3	6.735358E-3	5.659643E-3	7.447144E-3	7.101614E-3
10/19/2017  17:44:39.854896	6.625780E-1	1.366841E-2	4.034095E-3	1.497488E-4	5.819388E-3	5.443654E-3	1.102149E-3	2.274323E-3
10/19/2017  17:44:39.855896	7.462937E-1	4.842352E-3	6.509998E-3	1.950742E-3	9.317234E-3	1.221297E-3	2.779867E-3	3.890581E-3
10/19/2017  17:44:39.856896	1.446230E-1	5.876568E-3	2.515699E-3	9.608725E-4	9.752528E-3	7.245114E-3	5.166037E-3	3.398382E-3
10/19/2017  17:44:39.857896	3.188840E-1	2.036913E-3	1.905115E-3	6.957383E-4	4.939416E-3	1.667187E-3	3.055913E-4	1.041286E-2
10/19/2017  17:44:39.858896	4.592992E-1	2.476943E-3	3.392810E-3	1.492610E-3	7.578270E-3	2.981293E-3	7.513907E-3	4.015601E-3
								
10/19/2017  17:44:39.859896	5.636133E-1	1.005389E-3	1.970043E-3	7.297400E-3	4.517207E-3	5.515589E-3	1.079630E-2	4.536180E-3
10/19/2017  17:44:39.860896	1.826943E-1	1.195493E-2	3.057138E-3	5.939287E-3	1.767455E-4	1.143544E-2	1.112896E-2	4.337169E-4
10/19/2017  17:44:39.861896	6.344109E-2	6.761468E-3	1.252737E-2	3.518931E-3	1.054484E-2	8.578231E-4	5.657785E-3	4.147503E-3
10/19/2017  17:44:39.862896	1.938084E-2	9.156964E-3	4.915655E-3	4.317046E-3	2.152717E-3	7.710820E-3	3.518735E-3	1.379044E-3
10/19/2017  17:44:39.863896	6.744554E-1	4.258182E-3	1.227983E-2	3.195381E-3	7.233995E-3	3.701910E-3	1.598927E-2	3.334946E-3
10/19/2017  17:44:39.864896	1.465542E+0	9.482319E-4	5.798512E-3	2.516817E-3	1.632666E-3	2.398130E-3	5.529237E-3	7.873179E-3
10/19/2017  17:44:39.865896	9.520384E-2	2.868502E-3	4.697053E-3	5.818028E-3	2.901443E-3	8.574255E-3	2.436343E-3	1.007603E-2
10/19/2017  17:44:39.866896	8.206247E-1	7.774163E-3	3.237589E-3	5.285684E-3	1.058426E-2	2.491923E-3	1.520657E-3	2.749268E-4
10/19/2017  17:44:39.867896	6.647451E-2	9.893517E-3	1.786609E-3	9.552597E-3	4.128057E-3	1.151480E-2	1.225970E-2	9.698247E-3
10/19/2017  17:44:39.868896	7.744783E-1	1.104587E-4	4.650205E-3	1.843724E-3	8.795895E-3	8.531278E-4	3.694357E-3	1.122079E-3
10/19/2017  17:44:39.869896	1.025545E+0	1.708082E-3	4.097116E-3	1.067267E-3	3.164611E-3	2.373231E-3	2.065299E-3	5.779962E-3
10/19/2017  17:44:39.870896	1.257509E+0	1.368380E-3	9.164708E-3	1.271293E-2	6.243538E-3	1.084692E-2	8.087029E-4	2.214770E-3
10/19/2017  17:44:39.871896	6.705362E-1	1.273247E-2	2.507068E-3	3.347500E-3	3.542597E-3	4.038702E-3	1.268497E-4	2.105780E-3
10/19/2017  17:44:39.872896	4.786223E-1	7.840153E-3	1.453404E-3	5.021308E-3	4.491797E-3	1.100475E-2	7.892071E-4	7.440871E-3
10/19/2017  17:44:39.873896	8.457960E-1	1.983130E-2	4.637545E-3	9.637580E-3	1.065789E-3	6.869946E-3	7.183440E-3	1.335482E-3
10/19/2017  17:44:39.874896	2.006175E+0	4.565279E-3	1.871061E-3	7.553088E-3	2.890149E-3	1.431262E-3	5.206387E-4	4.602164E-3
10/19/2017  17:44:39.875896	8.357700E-1	1.253445E-3	7.731498E-3	5.431169E-3	3.734555E-3	8.074583E-3	5.580993E-3	5.784615E-3
10/19/2017  17:44:39.876896	1.033427E+0	3.174695E-3	6.389954E-4	6.559871E-3	2.124635E-3	3.510920E-3	3.187500E-3	1.639979E-3
10/19/2017  17:44:39.877896	3.823166E-1	2.120281E-3	2.165721E-3	9.513376E-3	4.408407E-3	2.402329E-3	4.319998E-3	5.071651E-3
10/19/2017  17:44:39.878896	3.298235E-1	6.824353E-4	1.159761E-3	6.567736E-3	3.915338E-3	3.466029E-3	5.329141E-3	1.224653E-3
10/19/2017  17:44:39.879896	1.761670E-1	1.670982E-3	8.117466E-4	8.152049E-3	4.869802E-3	3.720749E-3	3.211529E-3	8.921712E-3
10/19/2017  17:44:39.880896	3.460402E-1	9.794533E-4	1.847032E-3	4.288044E-3	5.925465E-3	4.552055E-3	4.173805E-3	7.188679E-3
10/19/2017  17:44:39.881896	1.176748E+0	4.653554E-4	1.791313E-3	6.607988E-3	1.892155E-3	3.330206E-3	5.595428E-3	6.497129E-3
10/19/2017  17:44:39.882896	1.903874E+0	5.864301E-3	9.932286E-3	8.600452E-4	1.149654E-2	5.605862E-3	6.841937E-3	8.452351E-3
10/19/2017  17:44:39.883896	1.466824E+0	8.750829E-3	1.002443E-2	5.351905E-3	2.613626E-3	9.453825E-3	5.807042E-3	1.140680E-3
10/19/2017  17:44:39.884896	1.299201E-2	1.040205E-3	2.901849E-3	1.221933E-2	1.189889E-3	7.886854E-3	3.447241E-3	9.860312E-4
10/19/2017  17:44:39.885896	5.464628E-1	2.985882E-3	7.232381E-4	8.205818E-3	1.549243E-3	1.175137E-2	2.952259E-3	6.085164E-3
10/19/2017  17:44:39.886896	1.644229E-1	1.917583E-3	2.528684E-3	8.139464E-3	4.221874E-3	3.210179E-3	1.143106E-2	9.409164E-3
10/19/2017  17:44:39.887896	6.281868E-1	9.227803E-4	2.125008E-3	3.420172E-3	1.075409E-2	6.120696E-3	8.874650E-3	2.009601E-4
10/19/2017  17:44:39.888896	1.137442E+0	6.067302E-4	1.443691E-2	6.178091E-3	9.269012E-4	6.563579E-4	1.268248E-2	5.824211E-4
10/19/2017  17:44:39.889896	6.755765E-2	1.615187E-3	9.374422E-3	2.748107E-3	2.058103E-3	2.802169E-3	1.938202E-3	1.172083E-3
10/19/2017  17:44:39.890896	1.976627E-1	7.146154E-3	1.373658E-3	4.061581E-3	5.736909E-3	1.895233E-3	1.116150E-3	5.881765E-3
10/19/2017  17:44:39.891896	5.909594E-2	4.102034E-3	4.194271E-3	1.427088E-3	5.449373E-3	1.110726E-2	4.416151E-3	1.705651E-3
								
10/19/2017  17:44:39.892896	1.751378E-1	1.657586E-2	2.608195E-3	5.357238E-3	1.298634E-3	3.170011E-4	2.051009E-3	3.018780E-3
10/19/2017  17:44:39.893896	2.424407E+0	5.330188E-3	2.727796E-3	1.058963E-3	3.412855E-3	9.416800E-3	1.968272E-3	3.299775E-4
10/19/2017  17:44:39.894896	3.257411E+0	5.459277E-3	2.709293E-3	2.297645E-3	9.483315E-3	2.254699E-3	4.110078E-3	2.340207E-3
10/19/2017  17:44:39.895896	1.828066E+0	4.588728E-3	4.569569E-3	7.151199E-3	7.595714E-3	4.289214E-3	8.612877E-3	4.631006E-3
10/19/2017  17:44:39.896896	1.165786E+0	1.250406E-2	3.378294E-3	1.224308E-2	4.751410E-4	1.205071E-2	9.719981E-3	1.483365E-3
10/19/2017  17:44:39.897896	1.323248E+0	8.313894E-3	8.341077E-3	7.832687E-3	8.709731E-3	9.903171E-4	4.441534E-3	1.108555E-3
10/19/2017  17:44:39.898896	1.163930E+0	3.010001E-3	3.383335E-3	5.589190E-3	9.568108E-3	9.934710E-3	8.727735E-3	1.116240E-2
10/19/2017  17:44:39.899896	7.516290E-1	8.190050E-3	2.339023E-3	1.412905E-2	3.140840E-3	4.175967E-3	1.139777E-2	8.313608E-3
10/19/2017  17:44:39.900896	5.147078E-1	1.764182E-3	3.508771E-3	7.167142E-3	7.216956E-3	2.442896E-3	2.761323E-3	1.353003E-2
10/19/2017  17:44:39.901896	1.168592E+0	5.849388E-3	6.051452E-3	1.795450E-3	9.569937E-4	4.870806E-3	8.800914E-3	2.536241E-3
10/19/2017  17:44:39.902896	6.947933E-1	2.030798E-3	1.341766E-3	2.486637E-3	2.218678E-3	3.010231E-3	8.497204E-4	5.633812E-3
10/19/2017  17:44:39.903896	1.455374E+0	1.408561E-3	7.707996E-3	1.111225E-2	8.033361E-3	1.534464E-3	1.260195E-3	6.005567E-3
10/19/2017  17:44:39.904896	1.862583E+0	1.503983E-3	3.372896E-3	1.368581E-2	8.895101E-4	4.154228E-4	4.097133E-4	4.784540E-3
10/19/2017  17:44:39.905896	4.477229E+0	4.640055E-4	1.408878E-4	7.826882E-3	1.590693E-3	4.373204E-3	3.780514E-3	2.598954E-4
10/19/2017  17:44:39.906896	3.701992E+0	2.458618E-3	1.225344E-2	9.527175E-3	3.000415E-3	4.958615E-3	5.606667E-4	8.720981E-3
10/19/2017  17:44:39.907896	1.704130E+0	6.091944E-3	5.436637E-3	1.356544E-2	4.975320E-4	8.712067E-4	9.222684E-3	5.474014E-3
10/19/2017  17:44:39.908896	1.380063E-1	1.825052E-4	1.382975E-2	7.390627E-3	3.333688E-3	5.720846E-3	3.735187E-3	7.015884E-3
10/19/2017  17:44:39.909896	5.300958E-1	2.146776E-5	2.963269E-4	3.872531E-3	1.286226E-3	1.254204E-3	5.984083E-3	1.890977E-3
10/19/2017  17:44:39.910896	9.127397E-1	6.040331E-3	7.032706E-3	3.825227E-4	2.201253E-3	3.532335E-4	2.522313E-3	5.151904E-3
10/19/2017  17:44:39.911896	9.409595E-1	4.796483E-3	5.350716E-3	7.248970E-3	1.022121E-2	5.677266E-3	3.480965E-3	7.325073E-3
10/19/2017  17:44:39.912896	3.886769E-1	7.039277E-3	5.578714E-3	7.451229E-3	5.741027E-3	1.755778E-2	6.266410E-3	5.583325E-3
10/19/2017  17:44:39.913896	1.822664E-1	1.754021E-3	1.857549E-3	6.939325E-3	9.779751E-4	1.716897E-3	2.239381E-3	2.947973E-3
10/19/2017  17:44:39.914896	3.164129E-1	3.709927E-3	1.431517E-3	6.946277E-3	6.068484E-3	7.447785E-3	7.554428E-4	1.097809E-2
10/19/2017  17:44:39.915896	6.604879E-1	1.187024E-3	1.046860E-3	4.945678E-3	1.453050E-4	3.286058E-4	4.537354E-3	5.362215E-3
10/19/2017  17:44:39.916896	1.238639E+0	9.908596E-3	2.694717E-3	6.641541E-3	8.013935E-3	2.080987E-3	1.146616E-2	6.851273E-3
10/19/2017  17:44:39.917896	1.994888E+0	4.142831E-3	6.534996E-3	8.866881E-3	8.169879E-3	6.148462E-4	2.178418E-4	1.288431E-2
10/19/2017  17:44:39.918896	2.616329E+0	4.443950E-4	2.365187E-3	3.613704E-3	1.064480E-2	3.758194E-3	6.811074E-3	3.901242E-3
10/19/2017  17:44:39.919896	2.808076E+0	5.814716E-3	4.342082E-3	5.945033E-3	3.375989E-3	4.054353E-3	2.606509E-3	9.945898E-3
10/19/2017  17:44:39.920896	1.114128E+0	9.157370E-4	5.931055E-3	7.261805E-3	1.277547E-3	1.213979E-2	1.679040E-4	6.404104E-3
10/19/2017  17:44:39.921896	5.562377E-1	1.059786E-3	3.703062E-3	6.615053E-3	1.004910E-2	4.941175E-3	4.140945E-3	5.860403E-3
10/19/2017  17:44:39.922896	3.192433E+0	4.825368E-3	3.931064E-3	1.054416E-2	1.887049E-3	8.949254E-3	5.548157E-3	1.099550E-2
10/19/2017  17:44:39.923896	3.414449E+0	1.005667E-2	8.343263E-3	8.010846E-3	1.040350E-3	3.456568E-3	9.944103E-4	1.599247E-3
10/19/2017  17:44:39.924896	1.534582E+0	6.351061E-3	6.754753E-3	3.230737E-3	3.562775E-3	2.877019E-3	1.287916E-2	5.194534E-3
								
10/19/2017  17:44:39.925896	2.089300E+0	4.484759E-3	7.295567E-3	1.776477E-3	1.955014E-3	3.624124E-3	9.611574E-4	5.045863E-3
10/19/2017  17:44:39.926896	4.851829E-1	4.739848E-3	5.185987E-3	6.257283E-4	8.083268E-4	4.781675E-3	1.650672E-2	1.095913E-3
10/19/2017  17:44:39.927896	2.055819E+0	5.527394E-3	8.542170E-3	2.549610E-4	2.390630E-3	9.555808E-3	1.704270E-4	7.773299E-4
10/19/2017  17:44:39.928896	6.192417E-1	3.343997E-3	4.505650E-5	6.866349E-3	1.082223E-3	3.607783E-3	6.407795E-3	3.467946E-3
10/19/2017  17:44:39.929896	1.249530E-2	6.294662E-3	6.718469E-3	6.356647E-3	5.880355E-3	3.512755E-3	6.290310E-3	5.710475E-3
10/19/2017  17:44:39.930896	5.923154E-1	2.318483E-3	4.263270E-3	4.508442E-3	2.330542E-3	2.965215E-3	4.680851E-4	1.144026E-2
10/19/2017  17:44:39.931896	2.055970E+0	1.401264E-3	1.676601E-3	4.756805E-3	7.087106E-3	9.791416E-3	2.605330E-3	9.984870E-4
10/19/2017  17:44:39.932896	6.476511E-1	7.261155E-3	7.423108E-4	1.235988E-2	7.518250E-4	2.907930E-3	1.697811E-3	1.418251E-3
10/19/2017  17:44:39.933896	5.117882E-1	6.055626E-3	3.900502E-3	2.703254E-4	5.621322E-3	3.460557E-3	1.011279E-3	4.717235E-3
10/19/2017  17:44:39.934896	1.657784E-1	1.712959E-3	2.452206E-3	1.618705E-2	6.184437E-3	1.098165E-2	7.354653E-3	5.721291E-3
10/19/2017  17:44:39.935896	1.554648E+0	7.087101E-3	8.582081E-3	4.638715E-3	9.964381E-3	8.871960E-3	1.015503E-2	3.050199E-4
10/19/2017  17:44:39.936896	2.054394E+0	4.133351E-3	1.486188E-3	4.809940E-3	2.699483E-3	7.256897E-3	4.021153E-3	1.926812E-3
10/19/2017  17:44:39.937896	2.208840E+0	6.861645E-4	3.645005E-3	5.830356E-3	4.326705E-3	1.382265E-3	4.138338E-3	1.301874E-3
10/19/2017  17:44:39.938896	2.014883E+0	2.494638E-3	6.707419E-3	1.179598E-2	2.971890E-3	4.972415E-4	2.823126E-3	1.315470E-2
10/19/2017  17:44:39.939896	9.519002E-1	6.349101E-4	1.792784E-5	1.222053E-2	2.907232E-3	4.149305E-3	2.209685E-3	1.270195E-2
10/19/2017  17:44:39.940896	8.777246E-2	4.507774E-3	9.985258E-5	6.874663E-3	8.306928E-3	6.897138E-4	6.860707E-3	5.447230E-3
10/19/2017  17:44:39.941896	8.896451E-1	2.467405E-3	6.138867E-3	1.821875E-2	1.123060E-3	9.405842E-3	4.175610E-3	1.151727E-2
10/19/2017  17:44:39.942896	1.372491E+0	3.037585E-3	3.240247E-3	9.666579E-3	6.801327E-3	3.318121E-3	2.610580E-3	1.041072E-3
10/19/2017  17:44:39.943896	8.659914E-1	8.142888E-3	8.884029E-3	2.445202E-3	8.339800E-3	6.942326E-3	2.569699E-3	6.797824E-4
10/19/2017  17:44:39.944896	3.197482E-1	3.462422E-3	4.383427E-3	1.700573E-3	1.129341E-3	7.326003E-3	4.723643E-4	4.063612E-4
10/19/2017  17:44:39.945896	1.350406E-1	2.332510E-3	1.894714E-3	8.787936E-4	2.852765E-3	6.621006E-3	3.663107E-3	1.781050E-3
10/19/2017  17:44:39.946896	6.695032E-2	2.525625E-3	8.317493E-3	7.601147E-3	4.327883E-3	1.261751E-2	1.826891E-3	1.046304E-3
10/19/2017  17:44:39.947896	4.655208E-2	7.464585E-4	8.224233E-3	8.052164E-3	1.685345E-3	6.823542E-3	4.426263E-3	5.254233E-3
10/19/2017  17:44:39.948896	2.017986E-1	7.338666E-4	2.497594E-4	6.500837E-3	1.719218E-2	7.724468E-3	1.043418E-2	2.578887E-3
10/19/2017  17:44:39.949896	5.277812E-2	5.265637E-3	4.604358E-3	4.971266E-3	1.093776E-2	3.851455E-3	1.265684E-3	9.356572E-3
10/19/2017  17:44:39.950896	5.215837E-1	1.589464E-3	3.181040E-3	1.159973E-2	7.282732E-3	1.098851E-2	1.680962E-3	1.911613E-3
10/19/2017  17:44:39.951896	7.669243E-1	4.208318E-3	1.982493E-3	5.389556E-3	5.587312E-3	1.251238E-3	7.325157E-3	7.123087E-3
10/19/2017  17:44:39.952896	7.743923E-1	2.725182E-3	2.983171E-3	6.551632E-3	5.029370E-3	1.269896E-2	3.869499E-3	3.791436E-4
10/19/2017  17:44:39.953896	3.599279E+0	8.858254E-4	3.199658E-3	8.765987E-3	3.072205E-3	1.394161E-2	4.433804E-3	9.016597E-3
10/19/2017  17:44:39.954896	3.006711E+0	1.173806E-2	9.069424E-3	6.499157E-3	6.432796E-3	5.172326E-3	7.560621E-3	1.561012E-3
10/19/2017  17:44:39.955896	8.685236E-1	2.584726E-3	2.072024E-3	9.146492E-3	6.284182E-3	4.627329E-3	2.218941E-4	3.152435E-3
10/19/2017  17:44:39.956896	9.636767E-1	2.817084E-3	4.605553E-3	1.219512E-2	3.456894E-3	3.766435E-3	6.355802E-3	2.321450E-4
10/19/2017  17:44:39.957896	3.134995E-1	7.813282E-3	2.389903E-3	1.231698E-2	1.463994E-2	8.556298E-3	3.855314E-3	3.066916E-4
								
10/19/2017  17:44:39.958896	8.716036E-1	2.065684E-3	1.058220E-2	7.266175E-3	1.584589E-3	1.327249E-3	6.004775E-3	3.380261E-4
10/19/2017  17:44:39.959896	4.785085E-1	7.784308E-3	2.729959E-3	6.567460E-3	5.424783E-3	1.392681E-3	1.518966E-3	3.639438E-3
10/19/2017  17:44:39.960896	1.772700E+0	1.281746E-3	6.303449E-3	4.562562E-3	3.283809E-3	2.563955E-3	1.415550E-3	8.229366E-3
10/19/2017  17:44:39.961896	2.003019E+0	3.252830E-3	1.250233E-3	1.022470E-3	2.365263E-3	1.358145E-3	4.821057E-3	5.184090E-3
10/19/2017  17:44:39.962896	2.590271E+0	2.232842E-3	6.007285E-3	1.956958E-2	3.648488E-3	7.745736E-3	2.124192E-3	2.956991E-3
10/19/2017  17:44:39.963896	2.757167E+0	4.525593E-3	2.024116E-3	9.611904E-3	9.850507E-3	2.917244E-3	7.810943E-3	8.662661E-3
10/19/2017  17:44:39.964896	1.966306E+0	2.196993E-3	3.226159E-3	1.474870E-2	6.817375E-3	9.085383E-3	5.288094E-3	6.977799E-3
10/19/2017  17:44:39.965896	1.934811E-1	3.520483E-3	4.141055E-3	1.416024E-3	6.463542E-3	8.047094E-3	1.273526E-3	4.769005E-3
10/19/2017  17:44:39.966896	1.282446E+0	3.156269E-3	2.266975E-3	2.691957E-3	4.338519E-3	5.979378E-3	4.632268E-3	3.670584E-3
10/19/2017  17:44:39.967896	4.117649E-1	5.105836E-3	6.772810E-3	3.113948E-3	2.571477E-3	8.198511E-3	1.783096E-3	7.471121E-4
10/19/2017  17:44:39.968896	1.728098E+0	3.801445E-3	7.206520E-3	4.974011E-4	1.222343E-3	3.178347E-3	5.632006E-3	2.925801E-3
10/19/2017  17:44:39.969896	7.792114E-1	1.290220E-3	1.523559E-2	3.050874E-3	3.755665E-3	2.044611E-3	1.540465E-3	6.000372E-3
10/19/2017  17:44:39.970896	3.464508E+0	1.562701E-2	8.182865E-4	1.507732E-2	5.481467E-3	9.860144E-4	5.067630E-3	1.314514E-3
10/19/2017  17:44:39.971896	2.341882E+0	1.139421E-2	1.804505E-3	1.125640E-3	3.401390E-3	1.673121E-2	3.341266E-3	7.716853E-3
10/19/2017  17:44:39.972896	1.539502E+0	1.300470E-2	9.800137E-3	9.576755E-4	4.583259E-3	9.092658E-3	8.208083E-3	1.378361E-3
10/19/2017  17:44:39.973896	6.111006E-1	1.115541E-2	2.079175E-3	2.065850E-3	8.968613E-4	8.188874E-3	3.540487E-3	6.798514E-3
10/19/2017  17:44:39.974896	6.068351E-1	3.038292E-3	4.851687E-3	9.490389E-3	4.513229E-3	8.743722E-4	6.463241E-3	4.516309E-3
10/19/2017  17:44:39.975896	7.823904E-1	6.218765E-3	2.665319E-3	5.746101E-3	1.746533E-3	5.747024E-3	3.227699E-4	7.097985E-3
10/19/2017  17:44:39.976896	2.224369E+0	2.620735E-3	6.919753E-3	2.859379E-3	7.485921E-3	2.629579E-3	6.471126E-3	5.915031E-3
10/19/2017  17:44:39.977896	1.224229E+0	7.773092E-3	4.167950E-3	5.261122E-3	3.639364E-3	7.452662E-3	2.311212E-3	3.360858E-3
10/19/2017  17:44:39.978896	5.053891E-1	2.155894E-3	5.931633E-3	1.866851E-3	8.082786E-3	3.694181E-4	5.490657E-3	1.050679E-2
10/19/2017  17:44:39.979896	2.860413E-1	7.588838E-3	7.611769E-3	8.276974E-3	4.017316E-3	5.284267E-3	5.043166E-3	1.894919E-3
10/19/2017  17:44:39.980896	3.129478E+0	1.005084E-3	1.400037E-2	8.316642E-3	1.187356E-3	1.962605E-3	7.052027E-3	9.333232E-3
10/19/2017  17:44:39.981896	1.465108E+0	5.033131E-3	1.983084E-3	2.572951E-2	3.431172E-3	1.838433E-3	3.940850E-4	5.002848E-3
10/19/2017  17:44:39.982896	1.122117E+0	5.773172E-3	9.644745E-3	6.001487E-3	4.546329E-3	3.187818E-4	6.991544E-3	6.202899E-3
10/19/2017  17:44:39.983896	4.286204E-1	1.979198E-3	1.978323E-3	9.154523E-3	1.164839E-3	1.530330E-3	4.446757E-3	2.645674E-3
10/19/2017  17:44:39.984896	3.932312E+0	4.452792E-3	2.892168E-3	8.395049E-3	4.544807E-3	5.918668E-3	5.501632E-3	6.262059E-3
10/19/2017  17:44:39.985896	6.138199E-1	2.052700E-3	3.816664E-4	7.612434E-4	5.815184E-3	1.962214E-3	9.079099E-3	4.037000E-3
10/19/2017  17:44:39.986896	1.009253E+0	7.904521E-3	2.366043E-3	5.673307E-3	9.618188E-3	1.402211E-3	9.560094E-3	7.952136E-3
10/19/2017  17:44:39.987896	1.417748E+0	8.048148E-4	2.611752E-3	9.040688E-3	6.995254E-3	9.326615E-3	8.192498E-3	6.532565E-3
10/19/2017  17:44:39.988896	1.879942E+0	3.271904E-4	2.557890E-3	1.376544E-2	4.624874E-3	4.652629E-3	7.367702E-3	9.008207E-3
10/19/2017  17:44:39.989896	4.955170E+0	1.197634E-2	2.481444E-3	4.593706E-3	3.206171E-3	8.903204E-4	1.676205E-3	1.257442E-4
10/19/2017  17:44:39.990896	4.240771E+0	5.531941E-3	1.340637E-3	8.479867E-3	3.174240E-4	2.526182E-3	3.057568E-3	3.627735E-3
								
10/19/2017  17:44:39.991896	1.992514E+0	1.576171E-2	2.475204E-3	3.957384E-3	4.482100E-3	2.657043E-3	6.367136E-3	4.626592E-3
10/19/2017  17:44:39.992896	1.461078E-1	9.394237E-3	3.093028E-3	2.593436E-3	6.396088E-4	2.410588E-3	2.375165E-3	7.343032E-3
10/19/2017  17:44:39.993896	5.908828E+0	6.098080E-3	4.265058E-3	2.462293E-2	1.782194E-3	1.330544E-3	7.491426E-3	1.611156E-3
10/19/2017  17:44:39.994896	4.496599E+0	6.403564E-3	6.025695E-4	9.181642E-3	2.879129E-3	7.398562E-3	2.087244E-3	9.730940E-4
10/19/2017  17:44:39.995896	5.655888E-1	1.461009E-3	5.696997E-3	1.223130E-3	5.433428E-3	1.947354E-3	9.830624E-3	1.501173E-3
10/19/2017  17:44:39.996896	1.528215E+0	5.767711E-3	1.038711E-3	9.614528E-3	3.565788E-3	3.588642E-3	4.233928E-3	8.798087E-4
10/19/2017  17:44:39.997896	1.543609E+0	4.211916E-3	9.911874E-3	3.981693E-3	1.080747E-2	7.614386E-3	6.463629E-3	9.541273E-3
10/19/2017  17:44:39.998896	1.094748E+0	3.873524E-3	5.697871E-3	1.183037E-2	1.744594E-3	2.861923E-4	1.179416E-3	3.024552E-3
10/19/2017  17:44:39.999896	4.847131E-1	6.769031E-3	1.146257E-2	1.055989E-2	5.322606E-3	7.227049E-3	6.258862E-3	1.926526E-2
10/19/2017  17:44:40.000896	2.684831E-1	6.771014E-3	5.023945E-3	1.149811E-2	4.935363E-3	9.481440E-4	1.622812E-3	4.722479E-3
10/19/2017  17:44:40.001896	6.465609E-1	1.801638E-3	7.363435E-3	4.872409E-3	4.728940E-3	4.902502E-3	2.236653E-3	1.303247E-2
10/19/2017  17:44:40.002896	1.111772E+0	2.899638E-3	5.658977E-3	8.407380E-3	7.894677E-3	1.950616E-3	2.297834E-3	7.033166E-3
10/19/2017  17:44:40.003896	2.988380E-1	8.652381E-3	1.141955E-3	8.262833E-3	3.010264E-3	4.158820E-3	5.969355E-3	8.757969E-3
10/19/2017  17:44:40.004896	5.296612E-1	9.419805E-4	1.767420E-3	1.865334E-3	6.265153E-4	1.664987E-3	1.453803E-2	9.879940E-4
10/19/2017  17:44:40.005896	1.338273E+0	1.388822E-2	6.528069E-3	1.662940E-4	9.103584E-3	8.036467E-3	4.740226E-4	8.913309E-3
10/19/2017  17:44:40.006896	2.214516E+0	1.017805E-2	9.474043E-4	4.629966E-3	1.384872E-2	3.243486E-3	2.332387E-3	2.983943E-3
10/19/2017  17:44:40.007896	5.366949E-1	4.036595E-3	1.859629E-2	9.126785E-3	6.715747E-3	1.188853E-2	1.662802E-5	2.033666E-3
10/19/2017  17:44:40.008896	1.162707E+0	4.160606E-3	4.904356E-3	1.013743E-3	8.282688E-3	4.008026E-3	2.654005E-3	1.246299E-3
10/19/2017  17:44:40.009896	2.027713E+0	2.896880E-3	4.073318E-3	7.251966E-3	1.251267E-3	1.753671E-2	1.776636E-4	1.379154E-3
10/19/2017  17:44:40.010896	1.004787E+0	1.201658E-2	7.343482E-3	1.471184E-3	6.965906E-3	1.156511E-2	5.215620E-3	5.060507E-3
10/19/2017  17:44:40.011896	3.112012E+0	2.098732E-5	5.185457E-3	2.613792E-3	6.196389E-3	2.325997E-3	8.038772E-3	5.475493E-3
10/19/2017  17:44:40.012896	2.939063E+0	1.950520E-2	5.648363E-3	6.983304E-3	3.733671E-3	7.676481E-3	1.596873E-3	1.517764E-3
10/19/2017  17:44:40.013896	1.398175E+0	2.181415E-3	3.858757E-3	1.361110E-2	4.114345E-3	1.259683E-3	2.406082E-3	1.017008E-3
10/19/2017  17:44:40.014896	1.542641E-1	1.334249E-3	4.366464E-4	8.842287E-3	1.339698E-2	7.088007E-4	5.537770E-4	5.508017E-3
10/19/2017  17:44:40.015896	5.570340E-1	7.035576E-4	3.685267E-3	1.709250E-2	9.145231E-3	2.214919E-3	4.721697E-3	1.007705E-3
10/19/2017  17:44:40.016896	2.573330E+0	2.535625E-4	8.091054E-3	5.688418E-3	2.014971E-2	1.118834E-4	7.584854E-3	2.084960E-3
10/19/2017  17:44:40.017896	3.984273E+0	2.035821E-3	7.380881E-3	4.259019E-3	7.031576E-3	4.505320E-3	2.656350E-3	7.476101E-3
10/19/2017  17:44:40.018896	1.691499E-1	1.239954E-3	1.757716E-3	5.010632E-3	3.226287E-3	9.647876E-4	6.729421E-4	3.254953E-3
10/19/2017  17:44:40.019896	3.811792E+0	5.985800E-4	7.677877E-4	4.965601E-3	5.245184E-3	3.281332E-3	2.729357E-3	4.439912E-3
10/19/2017  17:44:40.020896	3.889895E+0	5.867150E-3	1.752339E-3	1.553107E-2	4.192742E-3	1.575070E-3	1.775658E-4	7.764096E-4
10/19/2017  17:44:40.021896	7.120551E-1	2.651248E-3	2.838972E-3	7.361733E-4	7.741162E-3	2.327968E-3	1.125999E-4	1.557349E-3
10/19/2017  17:44:40.022896	2.385295E+0	7.598439E-3	8.561211E-3	1.043081E-2	5.287881E-3	1.340858E-2	3.461046E-4	8.648877E-4
10/19/2017  17:44:40.023896	3.761296E+0	1.198194E-4	4.728864E-3	3.453994E-4	4.668066E-3	6.099571E-3	1.443365E-2	7.587831E-3
								
10/19/2017  17:44:40.024896	3.264913E+0	4.953626E-3	1.807891E-2	3.926568E-3	3.658184E-3	7.547842E-3	1.215400E-2	4.019990E-3
10/19/2017  17:44:40.025896	6.001682E-1	4.388684E-3	4.872731E-4	9.702466E-3	2.431376E-3	1.219868E-2	1.137821E-2	6.632523E-3
10/19/2017  17:44:40.026896	2.723901E-1	1.613347E-3	2.033007E-2	1.082509E-3	4.555389E-3	5.196871E-3	6.194857E-3	1.282042E-3
10/19/2017  17:44:40.027896	9.161194E-1	1.430739E-2	4.749965E-3	4.468374E-3	1.559604E-3	9.641393E-3	2.584857E-3	2.059308E-3
10/19/2017  17:44:40.028896	3.186538E+0	4.847837E-3	1.181714E-2	5.615076E-3	1.112238E-2	4.717485E-6	1.742898E-3	9.965696E-3
10/19/2017  17:44:40.029896	8.970707E-1	1.447568E-3	3.126821E-3	4.053897E-3	6.110664E-3	5.847713E-3	9.801232E-3	2.042428E-3
10/19/2017  17:44:40.030896	1.765852E-1	7.230559E-4	5.356181E-4	1.242247E-2	2.434116E-4	1.111302E-2	2.063749E-3	5.241131E-3
10/19/2017  17:44:40.031896	4.480458E-1	8.049286E-3	3.176504E-3	6.499226E-3	7.231266E-4	3.387760E-3	4.866874E-3	7.230442E-3
10/19/2017  17:44:40.032896	2.411123E+0	4.730304E-3	8.875605E-3	2.478674E-3	3.040052E-3	1.812831E-5	1.295867E-3	7.717516E-3
10/19/2017  17:44:40.033896	4.279567E+0	9.716223E-3	1.523896E-3	4.168664E-3	6.237157E-3	4.116144E-3	2.995642E-3	1.779060E-3
10/19/2017  17:44:40.034896	2.828993E+0	2.729893E-4	5.109609E-3	1.174995E-2	8.327309E-3	1.721912E-3	1.326094E-3	3.467557E-3
10/19/2017  17:44:40.035896	1.840965E+0	4.416528E-4	5.263878E-3	3.146698E-3	4.433887E-3	3.146790E-3	1.867755E-3	6.154365E-3
10/19/2017  17:44:40.036896	2.649940E-1	5.611710E-4	9.118594E-3	1.264242E-2	6.464264E-3	3.695677E-3	2.751005E-4	2.802839E-3
10/19/2017  17:44:40.037896	8.830596E-1	1.351087E-3	5.398605E-3	3.408848E-3	2.658452E-3	2.355794E-3	8.428269E-3	9.785224E-3
10/19/2017  17:44:40.038896	1.633117E+0	1.651660E-3	9.890519E-3	2.417826E-3	4.127897E-3	5.444855E-5	9.783574E-4	4.746687E-4
10/19/2017  17:44:40.039896	2.077275E+0	5.803276E-4	1.016719E-2	1.229358E-2	6.638873E-3	5.391280E-4	5.232034E-3	2.338817E-2
10/19/2017  17:44:40.040896	3.383641E+0	1.822995E-3	2.448079E-3	1.817848E-2	4.946546E-4	4.897942E-3	2.464403E-3	6.001561E-3
10/19/2017  17:44:40.041896	9.324719E+0	7.616405E-3	4.030447E-3	3.968290E-3	1.089252E-2	8.232432E-4	3.596404E-3	3.308329E-3
10/19/2017  17:44:40.042896	5.687168E+0	1.213424E-3	6.728817E-4	1.433709E-3	1.691833E-3	1.167341E-2	1.157732E-3	2.850401E-3
10/19/2017  17:44:40.043896	2.099473E+0	6.483156E-3	5.545461E-4	2.991775E-3	3.257056E-3	3.748759E-3	2.986210E-4	4.149910E-4
10/19/2017  17:44:40.044896	2.883421E+0	4.892013E-3	4.404453E-3	2.959534E-3	4.082053E-3	6.976293E-3	9.739894E-4	4.940494E-3
10/19/2017  17:44:40.045896	3.972508E-1	7.466970E-3	1.160382E-2	1.470666E-2	2.204711E-3	1.033514E-2	7.768886E-3	6.629918E-4
10/19/2017  17:44:40.046896	1.591662E+0	1.624985E-3	3.605374E-3	2.911547E-3	5.163684E-3	5.799172E-4	5.310027E-3	2.003278E-3
10/19/2017  17:44:40.047896	5.964664E+0	3.101560E-3	1.658951E-2	3.625734E-3	1.213627E-3	1.327593E-2	5.294836E-3	7.358770E-3
10/19/2017  17:44:40.048896	6.181292E+0	2.406368E-4	4.986482E-3	1.983094E-2	1.344627E-3	8.037649E-3	3.239924E-3	2.447044E-3
10/19/2017  17:44:40.049896	5.963686E-1	2.247176E-3	9.891891E-3	7.935916E-3	7.151705E-3	4.382510E-3	4.261050E-3	1.077981E-2
10/19/2017  17:44:40.050896	9.316874E-1	1.239123E-3	5.887605E-3	8.261911E-3	8.346038E-3	1.027937E-2	9.382319E-3	4.039592E-3
10/19/2017  17:44:40.051896	1.070404E+0	1.541079E-3	9.971454E-4	3.461655E-4	1.144570E-3	4.055175E-4	1.158130E-3	1.076015E-2
10/19/2017  17:44:40.052896	3.294755E+0	8.229025E-4	7.177457E-3	1.165190E-2	7.335122E-3	1.713085E-3	5.652943E-3	6.099134E-3
10/19/2017  17:44:40.053896	2.390385E+0	3.836320E-3	3.626411E-3	2.419917E-3	2.192108E-3	3.099457E-3	2.916719E-5	5.965013E-3
10/19/2017  17:44:40.054896	2.190142E+0	1.592910E-3	2.062366E-3	5.097396E-3	2.066720E-3	1.732052E-3	2.641541E-3	6.350712E-4
10/19/2017  17:44:40.055896	6.279648E-1	1.238038E-3	1.377135E-3	9.135667E-3	3.601900E-3	7.291230E-3	4.058175E-3	6.613485E-3
10/19/2017  17:44:40.056896	3.190706E-1	6.858028E-3	2.807502E-3	7.350708E-3	5.139794E-3	5.749073E-3	8.539458E-3	1.651963E-3
								
10/19/2017  17:44:40.057896	3.363001E-1	5.636855E-3	1.054875E-2	4.964479E-3	8.059132E-3	1.204469E-3	3.508328E-3	1.624580E-3
10/19/2017  17:44:40.058896	2.497771E+0	1.563722E-2	8.170433E-3	2.120539E-3	5.482624E-3	5.742710E-3	2.681030E-3	1.577717E-3
10/19/2017  17:44:40.059896	6.551645E-1	6.467797E-4	1.288048E-2	1.643056E-2	4.578835E-3	6.411959E-3	3.977150E-3	1.477245E-3
10/19/2017  17:44:40.060896	3.960087E-1	2.630133E-3	9.460685E-3	3.829326E-3	1.667539E-3	7.193048E-3	4.337891E-3	5.311803E-3
10/19/2017  17:44:40.061896	6.908459E-1	2.338848E-3	8.429385E-3	6.230554E-3	9.321606E-3	5.108936E-3	1.106798E-2	4.765147E-3
10/19/2017  17:44:40.062896	1.814510E+0	4.824305E-3	8.878689E-3	9.783290E-3	6.885739E-3	1.232131E-2	5.774087E-3	1.476308E-3
10/19/2017  17:44:40.063896	8.424277E-1	5.157819E-3	7.299103E-3	7.004465E-3	1.720480E-3	2.266224E-3	3.646746E-3	5.180479E-3
10/19/2017  17:44:40.064896	1.289933E+0	2.785595E-3	6.590824E-3	1.173983E-3	6.750469E-3	9.790985E-4	5.947222E-3	3.003839E-3
10/19/2017  17:44:40.065896	8.493329E-1	2.985245E-3	2.466787E-3	2.014337E-3	4.896842E-3	8.943790E-4	1.283492E-3	2.076288E-4
10/19/2017  17:44:40.066896	6.981453E-1	3.447435E-4	1.204883E-4	4.076803E-3	5.711098E-3	5.205732E-3	2.293678E-4	2.135229E-3
10/19/2017  17:44:40.067896	1.133533E+0	5.209795E-3	3.628470E-4	2.672553E-3	6.209113E-3	5.511055E-3	1.464000E-3	1.088191E-3
10/19/2017  17:44:40.068896	1.274997E+0	4.820546E-5	2.677741E-3	5.249409E-3	1.310066E-2	7.578148E-3	5.974589E-3	3.688846E-3
10/19/2017  17:44:40.069896	6.060346E-1	1.319360E-2	7.861225E-3	8.493318E-3	5.753770E-3	1.890589E-3	8.036999E-3	2.321779E-3
10/19/2017  17:44:40.070896	4.644484E-1	4.177485E-3	5.659031E-3	8.273836E-3	5.343650E-3	1.754468E-2	1.423677E-3	5.245697E-3
10/19/2017  17:44:40.071896	3.522465E-1	2.188548E-3	1.481549E-3	1.050857E-2	9.710528E-3	6.394115E-3	2.804330E-3	5.445564E-3
10/19/2017  17:44:40.072896	1.096012E+0	3.322870E-3	7.183261E-3	6.939102E-3	6.488873E-3	6.577768E-3	1.061151E-3	1.564044E-3
10/19/2017  17:44:40.073896	1.532606E+0	1.466217E-3	8.134625E-3	7.067205E-3	2.145055E-3	3.871089E-3	1.015609E-2	8.986801E-3
10/19/2017  17:44:40.074896	2.752550E-1	9.774233E-3	4.806266E-3	1.144709E-2	3.227813E-3	7.996184E-3	6.159346E-3	9.277891E-3
10/19/2017  17:44:40.075896	7.666226E-1	1.393628E-4	5.701086E-3	1.018434E-2	1.438807E-2	4.492928E-3	2.882680E-3	7.691605E-3
10/19/2017  17:44:40.076896	1.028122E+0	2.208326E-3	3.023894E-4	1.845663E-2	6.160406E-3	4.177703E-3	4.233438E-3	5.978587E-3
10/19/2017  17:44:40.077896	1.106779E+0	7.262013E-4	6.294441E-5	4.307815E-3	1.703692E-3	1.272602E-3	2.701099E-3	5.857475E-3
10/19/2017  17:44:40.078896	3.896661E+0	1.504444E-3	6.273477E-3	2.009195E-2	1.707187E-3	1.488554E-3	3.481531E-3	3.210333E-3
10/19/2017  17:44:40.079896	2.123997E+0	6.668388E-3	2.483545E-3	1.873242E-3	9.688698E-3	1.589863E-3	6.367720E-3	8.743757E-3
10/19/2017  17:44:40.080896	4.216672E-1	1.078276E-2	3.660536E-3	3.129123E-3	1.689650E-3	2.379447E-3	4.081338E-3	5.326924E-3
10/19/2017  17:44:40.081896	7.211073E-1	4.571207E-3	1.187558E-2	3.518128E-3	1.435855E-3	2.480439E-3	4.081374E-3	3.269050E-3
10/19/2017  17:44:40.082896	8.524080E-1	5.660985E-3	3.703698E-3	1.298419E-3	6.975927E-4	1.698002E-4	1.229290E-2	6.272289E-3
10/19/2017  17:44:40.083896	2.705976E+0	5.232951E-4	3.045148E-3	8.312852E-3	4.125174E-3	5.406976E-3	7.058442E-4	8.404230E-3
10/19/2017  17:44:40.084896	1.300085E+0	1.716456E-3	1.537478E-3	3.575628E-3	7.604218E-4	4.465360E-3	1.314808E-3	3.322149E-3
10/19/2017  17:44:40.085896	3.875128E+0	5.036257E-3	2.116966E-3	3.578420E-3	2.649881E-3	3.545693E-3	3.821157E-4	2.255980E-3
10/19/2017  17:44:40.086896	6.386492E-1	7.083612E-4	1.176618E-2	4.133650E-4	4.260185E-4	1.303788E-3	2.281003E-3	5.921451E-4
10/19/2017  17:44:40.087896	3.283808E+0	4.050723E-3	1.269703E-3	2.895719E-3	3.706805E-3	1.375839E-2	7.724569E-3	1.695674E-3
10/19/2017  17:44:40.088896	1.844601E-1	1.654956E-2	2.654137E-3	2.203280E-4	1.858770E-3	2.298591E-3	3.604455E-3	9.288326E-4
10/19/2017  17:44:40.089896	1.034931E+0	5.331168E-3	2.794154E-3	1.390303E-3	1.514344E-3	1.378328E-2	2.264525E-3	5.624980E-3
								
10/19/2017  17:44:40.090896	3.280892E+0	1.837005E-2	3.340127E-5	4.177666E-3	3.511786E-3	1.178144E-2	8.708229E-3	4.823120E-3
10/19/2017  17:44:40.091896	1.826114E+0	5.207489E-3	2.986428E-4	4.559203E-3	2.455843E-3	1.257134E-3	3.349949E-3	1.273192E-2
10/19/2017  17:44:40.092896	2.511678E+0	1.275461E-3	5.427334E-4	3.952561E-4	2.395118E-3	9.048071E-3	4.514654E-3	7.631352E-3
10/19/2017  17:44:40.093896	3.071291E+0	7.597010E-4	5.257193E-3	4.641958E-3	6.840173E-3	6.740198E-3	2.840601E-3	3.599175E-3
10/19/2017  17:44:40.094896	3.313761E+0	2.366730E-3	3.744446E-3	4.624045E-3	1.844357E-3	8.278940E-4	1.529637E-3	5.072455E-3
10/19/2017  17:44:40.095896	9.883690E-1	4.843292E-3	1.053003E-3	8.101346E-3	4.513153E-3	9.133437E-3	2.519554E-3	8.121057E-3
10/19/2017  17:44:40.096896	3.440383E-2	4.803699E-3	9.352117E-3	5.161028E-3	1.633959E-2	3.389882E-3	1.174171E-3	1.152192E-2
10/19/2017  17:44:40.097896	2.835222E+0	7.678839E-3	3.611729E-3	2.786306E-3	4.311653E-3	8.487467E-3	3.416066E-3	3.443346E-3
10/19/2017  17:44:40.098896	5.812872E+0	3.265010E-3	6.266321E-3	6.885700E-3	8.561814E-3	4.881282E-3	3.416630E-3	2.413540E-3
10/19/2017  17:44:40.099896	3.117468E+0	5.628069E-3	1.852860E-4	5.429287E-3	1.682182E-3	6.562751E-3	1.069817E-2	2.352755E-3
10/19/2017  17:44:40.100896	1.704222E+0	2.460664E-3	3.858774E-3	7.200784E-3	5.902009E-3	3.114992E-3	1.546745E-3	9.999365E-4
10/19/2017  17:44:40.101896	8.624956E-1	7.820198E-3	2.010211E-3	5.971890E-3	1.625903E-5	1.088753E-2	4.935916E-3	1.054092E-3
10/19/2017  17:44:40.102896	3.659168E+0	5.532107E-3	3.439971E-3	1.763967E-2	2.431770E-3	5.198891E-3	5.395969E-3	2.906220E-3
10/19/2017  17:44:40.103896	7.956923E+0	1.664470E-3	1.984776E-3	1.679516E-2	5.682792E-3	5.564266E-4	1.516570E-2	3.006714E-3
10/19/2017  17:44:40.104896	4.815337E+0	5.102719E-3	1.505434E-2	1.479933E-2	6.865055E-3	1.037890E-2	6.293653E-3	1.041304E-2
10/19/2017  17:44:40.105896	3.658491E+0	5.267009E-3	1.873465E-3	5.834757E-3	1.953488E-3	5.770120E-3	1.106439E-2	7.906528E-3
10/19/2017  17:44:40.106896	3.586888E+0	5.191114E-3	4.208698E-3	6.112946E-3	1.519953E-2	2.812732E-3	4.853232E-3	4.443926E-4
10/19/2017  17:44:40.107896	1.388556E+0	3.311735E-3	3.342817E-3	3.814569E-3	7.734072E-3	3.829085E-3	3.847252E-3	1.749223E-3
10/19/2017  17:44:40.108896	1.520890E+0	2.245958E-3	1.431764E-3	3.875629E-3	7.182861E-3	1.184519E-2	4.900736E-3	1.161423E-2
10/19/2017  17:44:40.109896	3.386625E+0	8.574461E-3	7.761820E-3	1.910441E-4	1.173547E-2	3.767146E-4	2.847451E-3	7.165397E-3
10/19/2017  17:44:40.110896	7.955306E-1	9.517446E-3	6.661558E-3	5.793040E-3	1.749352E-4	6.777488E-3	1.334879E-3	1.911152E-3
10/19/2017  17:44:40.111896	1.617007E+0	9.735454E-3	6.689834E-3	9.382304E-3	1.702409E-2	8.587323E-3	5.715825E-3	1.321184E-3
10/19/2017  17:44:40.112896	8.315130E-1	5.092549E-3	4.377693E-3	7.927746E-3	1.944750E-3	7.059186E-3	4.522270E-4	5.137596E-3
10/19/2017  17:44:40.113896	2.221009E+0	9.596969E-5	9.334953E-3	7.633825E-3	9.408199E-3	5.885705E-3	6.192259E-3	6.225884E-4
10/19/2017  17:44:40.114896	2.444901E+0	1.132084E-3	5.150832E-3	4.461276E-3	9.045270E-4	9.211769E-3	6.803836E-3	1.020176E-2
10/19/2017  17:44:40.115896	2.282607E+0	4.838169E-4	3.684371E-3	3.992122E-3	7.712935E-4	7.679103E-3	1.210913E-2	2.062823E-3
10/19/2017  17:44:40.116896	1.324751E+0	1.152932E-2	1.141345E-2	1.474149E-2	3.596964E-4	5.503942E-3	7.793743E-3	5.446598E-3
10/19/2017  17:44:40.117896	4.383037E-1	1.360276E-3	1.511214E-3	6.962749E-3	1.111396E-3	4.210199E-3	5.460613E-3	1.684013E-2
10/19/2017  17:44:40.118896	1.911486E+0	9.873868E-4	1.087565E-2	1.598926E-3	1.350871E-2	2.275777E-3	1.030758E-2	5.059017E-3
10/19/2017  17:44:40.119896	1.780774E+0	4.624090E-3	2.310880E-3	3.926650E-3	4.133491E-3	1.010009E-2	5.021478E-3	1.615461E-2
10/19/2017  17:44:40.120896	2.865540E+0	3.596378E-3	1.918064E-3	1.100123E-2	1.349502E-3	1.190582E-2	1.208688E-2	2.409343E-3
10/19/2017  17:44:40.121896	2.873200E+0	3.580416E-3	2.462538E-3	3.396588E-4	1.477775E-3	3.662583E-3	2.575318E-3	1.622534E-3
10/19/2017  17:44:40.122896	1.182147E+0	4.119352E-4	8.634724E-3	3.222236E-4	1.144204E-3	6.950285E-3	7.310510E-3	2.977664E-3
								
10/19/2017  17:44:40.123896	1.513816E+0	6.896042E-3	1.666963E-3	8.749174E-3	5.084550E-3	1.620761E-3	4.470774E-3	2.471377E-3
10/19/2017  17:44:40.124896	1.650530E+0	4.299518E-3	3.177095E-3	8.271373E-4	1.655750E-3	3.226676E-3	5.977082E-4	5.589838E-3
10/19/2017  17:44:40.125896	5.039416E+0	1.680264E-3	7.688295E-3	6.394984E-4	9.723930E-3	3.861777E-3	4.376703E-3	2.956691E-3
10/19/2017  17:44:40.126896	1.288350E+0	7.185701E-3	4.080194E-4	4.444531E-3	1.731129E-4	3.797533E-3	1.073557E-3	8.962089E-3
10/19/2017  17:44:40.127896	6.475225E+0	2.099892E-3	4.151323E-4	3.638511E-3	1.759309E-3	1.066431E-2	4.915314E-3	4.670480E-4
10/19/2017  17:44:40.128896	4.021333E+0	9.628638E-3	5.345967E-3	1.025875E-2	3.230878E-3	4.667052E-3	1.201930E-3	8.172207E-3
10/19/2017  17:44:40.129896	4.496181E+0	6.152332E-4	1.350214E-3	1.332337E-3	9.970027E-3	7.386175E-3	2.912055E-3	5.849430E-3
10/19/2017  17:44:40.130896	3.208265E+0	2.079589E-2	6.851985E-3	2.427577E-2	3.092996E-3	1.888637E-3	4.214846E-3	3.986750E-3
10/19/2017  17:44:40.131896	1.088320E+0	8.700836E-3	1.464847E-3	2.235064E-4	9.545493E-3	5.142519E-4	1.841389E-3	4.888548E-4
10/19/2017  17:44:40.132896	3.806996E+0	8.156666E-3	6.146678E-3	1.734020E-2	4.534068E-3	1.871392E-3	5.051639E-4	2.695845E-4
10/19/2017  17:44:40.133896	2.606782E+0	1.140394E-3	4.548914E-3	3.520995E-4	6.881777E-3	3.523757E-3	6.148623E-3	7.670916E-5
10/19/2017  17:44:40.134896	2.815450E+0	7.182834E-4	3.174583E-3	1.841336E-3	8.788186E-3	5.919595E-4	2.549749E-4	2.075327E-3
10/19/2017  17:44:40.135896	2.585432E+0	2.359826E-3	3.999816E-3	4.503941E-3	1.629087E-3	7.823125E-4	1.482307E-4	3.219422E-3
10/19/2017  17:44:40.136896	1.559039E+0	8.832905E-4	3.911527E-3	3.784285E-4	3.060225E-3	2.852804E-3	3.926727E-3	1.031054E-2
10/19/2017  17:44:40.137896	7.413202E-1	6.813343E-3	4.477927E-3	1.341606E-2	2.392895E-3	2.102593E-3	3.899796E-3	1.639328E-3
10/19/2017  17:44:40.138896	1.788273E+0	2.134551E-3	1.147732E-2	4.236691E-3	4.400801E-3	1.047034E-3	8.310796E-3	9.907831E-3
10/19/2017  17:44:40.139896	2.097478E+0	3.441513E-3	1.846846E-3	1.974217E-2	1.923244E-3	1.088329E-3	2.180714E-3	4.167780E-3
10/19/2017  17:44:40.140896	1.739440E+0	2.067789E-3	5.997103E-3	5.340290E-3	5.714584E-3	1.704850E-3	7.892220E-3	1.734493E-3
10/19/2017  17:44:40.141896	1.433150E+0	1.284930E-3	1.294156E-4	1.034034E-2	4.184197E-4	4.691429E-3	7.457335E-3	7.190552E-3
10/19/2017  17:44:40.142896	1.206300E+0	7.261782E-3	4.581935E-3	5.087943E-4	6.079798E-3	9.775214E-3	7.401318E-3	6.097993E-3
10/19/2017  17:44:40.143896	4.388063E-1	1.799215E-3	2.949915E-3	3.888840E-4	7.068800E-3	2.207074E-3	1.578854E-4	2.461801E-4
10/19/2017  17:44:40.144896	1.123522E-2	3.811865E-3	3.675505E-3	2.310249E-4	2.548802E-3	5.691570E-4	2.850458E-3	6.083558E-3
10/19/2017  17:44:40.145896	1.480289E+0	1.020144E-3	1.018586E-2	5.576212E-5	4.420250E-3	2.157863E-3	8.257143E-3	4.892902E-3
10/19/2017  17:44:40.146896	4.580394E-1	6.993786E-4	1.216783E-2	8.077742E-3	2.242392E-3	8.808865E-3	1.168963E-3	3.231299E-3
10/19/2017  17:44:40.147896	1.557798E+0	8.340791E-3	1.203572E-3	7.609441E-3	1.333040E-2	4.035331E-3	5.039165E-3	8.030227E-3
10/19/2017  17:44:40.148896	4.875020E-1	7.134327E-3	5.356146E-3	4.513816E-3	3.462387E-4	1.766080E-2	3.679042E-3	1.797555E-3
10/19/2017  17:44:40.149896	4.198970E-1	9.615670E-3	7.420148E-3	1.884075E-3	7.802855E-4	5.460708E-3	8.773971E-3	1.742388E-3
10/19/2017  17:44:40.150896	1.655767E-1	1.185524E-2	4.009102E-3	2.223246E-3	1.056971E-3	5.159940E-3	8.312339E-4	2.374501E-3
10/19/2017  17:44:40.151896	2.482870E-1	1.210619E-2	4.712952E-3	1.035153E-2	7.875442E-4	1.533920E-3	8.611668E-3	5.343708E-3
10/19/2017  17:44:40.152896	3.565874E+0	2.767016E-3	3.244692E-3	9.780045E-3	2.381625E-4	1.151923E-2	1.428380E-3	3.629709E-3
10/19/2017  17:44:40.153896	4.725653E+0	1.664457E-3	5.795772E-3	7.463345E-3	1.089774E-2	3.370970E-3	1.574833E-3	6.196929E-3
10/19/2017  17:44:40.154896	1.339143E+0	3.152814E-3	2.748689E-3	1.144741E-2	1.547636E-3	2.268914E-3	1.614112E-3	8.670395E-4
10/19/2017  17:44:40.155896	1.532444E+0	1.816093E-3	9.456791E-3	8.653474E-4	3.066531E-3	2.562062E-3	1.567768E-3	9.206352E-3
								
10/19/2017  17:44:40.156896	1.210917E+0	7.161755E-3	5.772025E-3	1.569977E-2	6.244557E-3	7.368939E-4	9.403363E-3	4.240217E-4
10/19/2017  17:44:40.157896	2.591089E+0	3.940497E-3	5.448068E-3	9.527078E-3	2.656282E-3	7.498132E-4	6.295184E-4	1.817440E-2
10/19/2017  17:44:40.158896	4.037861E+0	2.411270E-3	1.918346E-3	1.214679E-2	6.266396E-5	2.724955E-3	3.165695E-3	8.654266E-3
10/19/2017  17:44:40.159896	1.882689E+0	7.651331E-4	5.581818E-3	1.137548E-2	2.325349E-3	2.262698E-3	2.866650E-3	1.052027E-2
10/19/2017  17:44:40.160896	4.070575E+0	6.821503E-4	6.654144E-3	1.702178E-2	4.363929E-3	6.864492E-3	1.563078E-3	5.142355E-3
10/19/2017  17:44:40.161896	3.859280E+0	9.340884E-3	6.385074E-3	5.218316E-3	1.195585E-2	1.475684E-4	5.924455E-3	2.263288E-4
10/19/2017  17:44:40.162896	1.177545E+0	5.404840E-3	5.765586E-3	1.258085E-2	2.856313E-3	8.439966E-3	3.894943E-3	1.284950E-2
10/19/2017  17:44:40.163896	9.610859E-1	1.402108E-2	7.538547E-4	1.004745E-2	9.043913E-3	4.736796E-3	1.494984E-3	1.744183E-3
10/19/2017  17:44:40.164896	9.398125E-1	5.911025E-3	4.527275E-3	4.405634E-3	4.373331E-4	1.000650E-2	1.612642E-2	5.278341E-3
10/19/2017  17:44:40.165896	7.232658E-2	1.672965E-3	6.456584E-3	2.914394E-3	1.785860E-3	2.221289E-3	1.519974E-3	2.806822E-3
10/19/2017  17:44:40.166896	1.390300E+0	9.015018E-3	9.500773E-3	4.238032E-3	3.014248E-3	2.754576E-3	1.688703E-3	1.464620E-3
10/19/2017  17:44:40.167896	1.679649E+0	7.249830E-3	1.053969E-2	5.740147E-3	2.311830E-3	6.389515E-3	7.574561E-3	3.552819E-3
10/19/2017  17:44:40.168896	1.034524E+0	8.617939E-3	3.728561E-3	9.299854E-3	3.353883E-3	6.004818E-4	3.407353E-3	2.375744E-3
10/19/2017  17:44:40.169896	8.183315E-1	1.334902E-3	1.815193E-3	5.431074E-3	4.336745E-3	8.865911E-3	1.802074E-4	1.045797E-2
10/19/2017  17:44:40.170896	8.182657E-1	1.730214E-2	3.025101E-3	4.094479E-3	2.672109E-3	8.319775E-4	4.397655E-3	4.670833E-3
10/19/2017  17:44:40.171896	1.445077E-1	8.441490E-3	1.436188E-3	3.005050E-3	6.082958E-4	4.723918E-3	1.366951E-3	5.657956E-3
10/19/2017  17:44:40.172896	1.829938E-1	9.552794E-3	1.169019E-2	1.291236E-2	7.376866E-3	1.301200E-3	4.747044E-3	6.122501E-3
10/19/2017  17:44:40.173896	1.350274E+0	6.589252E-3	5.257646E-3	7.475428E-3	8.460923E-3	1.085068E-3	3.630432E-3	5.252445E-3
10/19/2017  17:44:40.174896	1.989399E-1	6.021841E-3	1.204452E-3	8.637390E-3	1.142570E-2	2.415176E-3	3.459695E-3	5.835692E-3
10/19/2017  17:44:40.175896	7.088615E-1	4.769692E-3	1.407043E-3	1.078612E-4	9.828755E-3	6.992203E-3	5.564771E-4	2.286935E-3
10/19/2017  17:44:40.176896	1.261189E+0	6.964299E-3	2.889354E-3	3.350717E-3	5.957209E-3	6.124130E-3	9.007013E-3	4.903742E-3
10/19/2017  17:44:40.177896	1.224298E+0	4.331477E-3	8.420562E-3	3.075393E-3	3.021874E-3	1.096615E-2	1.411351E-3	4.834001E-3
10/19/2017  17:44:40.178896	2.429727E-1	2.928941E-3	3.411155E-3	6.843960E-3	7.145578E-3	3.457998E-3	5.394298E-3	2.655577E-4
10/19/2017  17:44:40.179896	4.327836E+0	6.139716E-3	4.366411E-4	1.254623E-2	2.802905E-3	5.977601E-3	4.852196E-3	2.681627E-3
10/19/2017  17:44:40.180896	5.183984E-1	1.108993E-3	7.338107E-3	3.132832E-3	8.656118E-5	3.054199E-3	2.674760E-3	4.350386E-3
10/19/2017  17:44:40.181896	1.856787E+0	8.127851E-3	6.617123E-3	5.366946E-3	2.153812E-3	4.385554E-3	1.011659E-3	3.050314E-3
10/19/2017  17:44:40.182896	3.800115E+0	3.104122E-3	1.262957E-2	1.597443E-2	6.730676E-4	2.828385E-3	4.184964E-3	3.990237E-3
10/19/2017  17:44:40.183896	2.989020E+0	2.272956E-3	8.338258E-4	3.698420E-3	2.350614E-3	2.380993E-3	1.102759E-2	1.963954E-4
10/19/2017  17:44:40.184896	1.148480E+0	5.899808E-4	1.504400E-2	5.754841E-3	6.815537E-3	6.118066E-4	1.750597E-3	1.013177E-2
10/19/2017  17:44:40.185896	5.134620E+0	2.255572E-3	3.573234E-3	3.598765E-3	2.216134E-3	3.857065E-4	4.765174E-4	4.433724E-3
10/19/2017  17:44:40.186896	2.588485E+0	9.674106E-4	4.737096E-3	9.101629E-3	5.591033E-3	1.013444E-2	6.227046E-3	1.296996E-2
10/19/2017  17:44:40.187896	6.138161E-2	8.867853E-3	3.034537E-3	2.279024E-3	1.154180E-3	2.864647E-3	2.163248E-3	4.976187E-3
10/19/2017  17:44:40.188896	1.401865E-1	9.024278E-3	4.287296E-3	1.089230E-2	2.950614E-4	1.067811E-2	4.849645E-3	9.608428E-3
								
10/19/2017  17:44:40.189896	3.980334E+0	4.764224E-3	9.531056E-3	1.925239E-3	6.279755E-3	3.397798E-3	7.078048E-4	2.377507E-3
10/19/2017  17:44:40.190896	1.335744E+0	8.288586E-4	1.086935E-3	9.850771E-3	3.720936E-3	6.239594E-3	7.902421E-3	1.148767E-2
10/19/2017  17:44:40.191896	3.969996E+0	3.244048E-4	6.301499E-3	2.277636E-3	4.241391E-3	2.391357E-3	1.499236E-3	3.990606E-3
10/19/2017  17:44:40.192896	2.979629E+0	4.009196E-3	4.356965E-3	1.138556E-2	2.788384E-3	3.489389E-3	5.148825E-3	9.206522E-3
10/19/2017  17:44:40.193896	3.718084E-1	4.278346E-3	5.157170E-3	8.085725E-3	1.428161E-2	1.832326E-3	3.054809E-3	9.559895E-3
10/19/2017  17:44:40.194896	2.297861E+0	3.982448E-3	2.465418E-3	2.579994E-3	1.314313E-3	7.349499E-3	5.804818E-3	7.135901E-3
10/19/2017  17:44:40.195896	2.438749E+0	2.754333E-3	1.344443E-2	7.138544E-3	1.691612E-2	6.296077E-3	1.060292E-3	1.875560E-2
10/19/2017  17:44:40.196896	7.952916E-1	2.177434E-4	1.954698E-3	2.436674E-2	6.633807E-3	8.954698E-3	7.215412E-3	1.376549E-2
10/19/2017  17:44:40.197896	5.981442E+0	7.962531E-3	5.247003E-3	5.422051E-3	8.279984E-3	3.574662E-3	1.613885E-3	1.252242E-2
10/19/2017  17:44:40.198896	5.405675E+0	6.029858E-3	7.862475E-4	9.496075E-3	6.791239E-4	1.397055E-2	1.082857E-3	9.397429E-3
10/19/2017  17:44:40.199896	9.718885E-1	1.209715E-2	6.034751E-3	1.530060E-2	8.046700E-3	6.539563E-3	6.587055E-3	1.322052E-4
10/19/2017  17:44:40.200896	2.928346E+0	7.255286E-3	1.676526E-3	3.541380E-3	3.351222E-3	1.657634E-2	8.633505E-3	7.469415E-3
10/19/2017  17:44:40.201896	2.589503E+0	4.537612E-3	3.180076E-3	8.002173E-3	2.072894E-3	6.738672E-3	3.251743E-3	2.629130E-3
10/19/2017  17:44:40.202896	6.284273E-1	3.522127E-3	4.061853E-3	3.597105E-3	2.871118E-3	8.504780E-3	8.313850E-3	6.708656E-3
10/19/2017  17:44:40.203896	2.669500E+0	8.116693E-3	3.888316E-3	6.362261E-3	3.594889E-3	7.130922E-3	2.645313E-3	2.690666E-3
10/19/2017  17:44:40.204896	1.415363E+0	1.576645E-2	1.516780E-3	5.385674E-3	1.623673E-3	4.076749E-3	5.134753E-3	2.001592E-3
10/19/2017  17:44:40.205896	1.670535E+0	9.508446E-4	6.616558E-3	1.851464E-3	4.129359E-3	5.726291E-3	4.598707E-4	3.377444E-3
10/19/2017  17:44:40.206896	4.241264E+0	9.159167E-3	4.928915E-3	6.289213E-3	8.853135E-3	5.887668E-3	4.168750E-3	3.854119E-3
10/19/2017  17:44:40.207896	1.213988E+0	6.568085E-3	1.687658E-3	8.549939E-3	4.126681E-3	1.455918E-2	2.651093E-3	1.023443E-2
10/19/2017  17:44:40.208896	6.095562E-1	8.305447E-3	7.587962E-3	1.212680E-3	8.881144E-3	5.912360E-4	3.438958E-3	7.923117E-3
10/19/2017  17:44:40.209896	1.896766E+0	4.648520E-3	9.398350E-3	7.371189E-3	1.045092E-3	2.118570E-3	4.477763E-4	3.132735E-4
10/19/2017  17:44:40.210896	4.087970E+0	6.091248E-3	2.923377E-3	3.917638E-3	8.793407E-4	3.195639E-4	4.856948E-3	6.462090E-3
10/19/2017  17:44:40.211896	1.909234E+0	4.225080E-3	7.402030E-3	8.626263E-3	4.098458E-3	2.277652E-3	8.019938E-4	6.081331E-3
10/19/2017  17:44:40.212896	1.454193E+0	7.376880E-4	3.156505E-3	9.579950E-3	6.821563E-3	2.582410E-4	3.804078E-3	1.064298E-2
10/19/2017  17:44:40.213896	3.957377E+0	5.360557E-4	2.282797E-3	8.695021E-3	1.858248E-3	2.256167E-3	4.283181E-3	6.396450E-5
10/19/2017  17:44:40.214896	6.152154E+0	6.325840E-3	1.523382E-3	1.166487E-3	8.554550E-3	3.627815E-3	5.807856E-3	2.719063E-3
10/19/2017  17:44:40.215896	1.001697E+0	2.718836E-3	6.842417E-3	6.388137E-3	1.022819E-2	1.560971E-4	4.764729E-4	2.178704E-3
10/19/2017  17:44:40.216896	1.299385E+0	1.004744E-2	2.599230E-3	3.040998E-3	4.911798E-3	7.955445E-3	4.271828E-3	7.660065E-3
10/19/2017  17:44:40.217896	1.318373E-1	2.346584E-3	8.257075E-3	2.054117E-2	2.754978E-3	1.174652E-2	6.151073E-3	3.243108E-4
10/19/2017  17:44:40.218896	8.560555E-1	7.763401E-3	4.912492E-3	3.336473E-3	6.793512E-3	8.020578E-4	9.291312E-3	6.243855E-3
10/19/2017  17:44:40.219896	7.242956E-1	7.566936E-3	4.471164E-3	3.749834E-3	3.993543E-3	6.030605E-3	1.947223E-3	7.703946E-3
10/19/2017  17:44:40.220896	4.357659E-1	2.298033E-3	1.425271E-2	1.394280E-2	4.164951E-3	2.706504E-4	2.617519E-3	4.129261E-3
10/19/2017  17:44:40.221896	7.174555E-1	9.150244E-3	3.453471E-3	3.067573E-3	4.859362E-3	4.087069E-3	1.717182E-2	7.074565E-3
								
10/19/2017  17:44:40.222896	1.426614E+0	1.367353E-3	9.962282E-3	1.208530E-2	7.096307E-3	5.936825E-3	1.761286E-3	7.689126E-3
10/19/2017  17:44:40.223896	2.144572E-1	4.016371E-4	1.096927E-2	1.039666E-2	6.265976E-3	3.564018E-3	5.987832E-3	5.917809E-3
10/19/2017  17:44:40.224896	3.294284E+0	1.685340E-3	3.067443E-3	1.573818E-2	6.030385E-3	2.241140E-3	4.326848E-3	9.717448E-3
10/19/2017  17:44:40.225896	6.759815E+0	7.726883E-3	3.354872E-3	1.051545E-2	4.919439E-3	2.327393E-3	2.984010E-3	8.955163E-4
10/19/2017  17:44:40.226896	3.677137E+0	4.843912E-3	8.487325E-4	2.389055E-3	6.346231E-3	3.113877E-3	8.587077E-4	1.141217E-2
10/19/2017  17:44:40.227896	6.768334E-1	3.368655E-3	7.414228E-3	1.133878E-3	6.794994E-3	2.298457E-4	7.189460E-3	5.052717E-3
10/19/2017  17:44:40.228896	7.259240E-1	4.124833E-3	2.807743E-3	2.175159E-3	5.465176E-3	4.444751E-3	3.500468E-3	1.309786E-3
10/19/2017  17:44:40.229896	3.861016E+0	3.769183E-3	4.273795E-3	5.457041E-3	6.387223E-3	3.343229E-3	1.728689E-3	9.103156E-3
10/19/2017  17:44:40.230896	5.537166E+0	6.254293E-3	5.715621E-3	9.682089E-3	1.373516E-2	3.808934E-3	7.519039E-3	3.040229E-3
10/19/2017  17:44:40.231896	3.843535E+0	1.872371E-2	5.271433E-3	7.342228E-3	8.873664E-3	4.265823E-3	6.499287E-3	7.015638E-3
10/19/2017  17:44:40.232896	1.504854E+0	3.621553E-3	7.549172E-3	4.873165E-3	2.964052E-3	2.867412E-3	4.766347E-3	6.375086E-4
10/19/2017  17:44:40.233896	3.300624E-1	7.116297E-3	1.148731E-3	8.052897E-3	4.031342E-3	1.733443E-3	6.258787E-4	6.883142E-4
10/19/2017  17:44:40.234896	1.473778E+0	6.651267E-3	1.025783E-2	5.330981E-3	7.596596E-3	5.128396E-3	3.772266E-3	6.761386E-4
10/19/2017  17:44:40.235896	1.758710E-1	4.232067E-3	5.204458E-3	5.143157E-3	7.899900E-3	5.067054E-3	6.712816E-3	1.369743E-3
10/19/2017  17:44:40.236896	9.162941E-1	1.408483E-3	1.434986E-2	5.491917E-3	8.821031E-3	1.140989E-3	4.636205E-3	1.506860E-3
10/19/2017  17:44:40.237896	1.295063E-1	2.700513E-3	5.226932E-3	3.888424E-4	4.459937E-3	6.861626E-3	1.011318E-3	1.108903E-2
10/19/2017  17:44:40.238896	6.769163E-1	8.056891E-4	4.732338E-3	5.874105E-3	1.512074E-3	4.217698E-3	8.323519E-3	9.305682E-5
10/19/2017  17:44:40.239896	7.283206E-1	2.949178E-3	2.073336E-3	3.380534E-3	3.659862E-3	6.623593E-3	5.969741E-3	3.090313E-3
10/19/2017  17:44:40.240896	2.266128E-1	2.046993E-3	6.138385E-3	4.860682E-3	2.704906E-3	6.511071E-3	1.025226E-2	4.767728E-3
10/19/2017  17:44:40.241896	1.369782E+0	3.315070E-3	1.206575E-2	1.402510E-3	4.080236E-3	2.041793E-3	4.472683E-5	1.456857E-3
10/19/2017  17:44:40.242896	6.276002E-1	1.774638E-3	3.441477E-3	7.155407E-3	4.165662E-3	8.782903E-4	4.425582E-3	2.634178E-3
10/19/2017  17:44:40.243896	5.029320E-1	1.370904E-3	1.073481E-2	1.876735E-5	2.868346E-3	4.569582E-3	1.209484E-3	5.126883E-3
10/19/2017  17:44:40.244896	7.279901E-1	5.202432E-3	3.683125E-3	3.544294E-3	1.796356E-3	5.573930E-3	6.477627E-3	9.428694E-3
10/19/2017  17:44:40.245896	3.018815E-1	8.948274E-4	8.147458E-3	6.682260E-3	9.033959E-3	6.627599E-3	4.936195E-3	1.166382E-3
10/19/2017  17:44:40.246896	7.399547E-1	5.750433E-4	1.933031E-3	8.398791E-3	1.112394E-2	1.479216E-3	1.619178E-3	1.207031E-2
10/19/2017  17:44:40.247896	7.449934E-1	7.616465E-3	9.437064E-5	7.281309E-3	8.408749E-3	1.184193E-2	2.465074E-3	2.804617E-3
10/19/2017  17:44:40.248896	8.246029E-1	1.580449E-2	7.060343E-3	2.640619E-4	1.213877E-2	2.970116E-3	5.305569E-3	3.665578E-3
10/19/2017  17:44:40.249896	1.669081E-1	1.472978E-2	1.193143E-3	6.067360E-3	2.465272E-4	6.781335E-3	1.673986E-3	1.832184E-4
10/19/2017  17:44:40.250896	1.374881E+0	1.631795E-2	8.698168E-5	1.253576E-2	2.242610E-3	1.773268E-3	3.304057E-3	6.051107E-4
10/19/2017  17:44:40.251896	2.563151E+0	1.238313E-4	6.639956E-3	3.204512E-3	1.610716E-3	6.803264E-3	8.064389E-6	2.869875E-3
10/19/2017  17:44:40.252896	1.778061E+0	2.264468E-3	2.023505E-4	6.648707E-3	5.087043E-3	6.765162E-3	2.031950E-3	2.048183E-3
10/19/2017  17:44:40.253896	1.523370E+0	6.528452E-3	5.750832E-3	1.015042E-2	5.246605E-3	6.544594E-3	3.099096E-3	6.110076E-4
10/19/2017  17:44:40.254896	3.299498E+0	6.707822E-3	7.096116E-3	1.063658E-2	8.854707E-3	6.137903E-3	3.436011E-3	6.134806E-3
								
10/19/2017  17:44:40.255896	2.257612E-1	4.307697E-3	2.340775E-3	1.485440E-3	1.357613E-3	6.585006E-3	1.066054E-2	5.058667E-3
10/19/2017  17:44:40.256896	6.191153E+0	5.492574E-3	3.134725E-3	2.761143E-3	7.562995E-3	1.794211E-3	3.822814E-4	1.148576E-2
10/19/2017  17:44:40.257896	3.552559E+0	6.976779E-3	2.747697E-3	5.218386E-3	8.679763E-3	1.365193E-3	2.017843E-3	9.578458E-3
10/19/2017  17:44:40.258896	1.400501E+0	4.015521E-3	1.766082E-3	6.112442E-3	5.485029E-3	3.234496E-3	4.601202E-3	5.676333E-3
10/19/2017  17:44:40.259896	4.643383E+0	8.159756E-3	1.727168E-3	1.003589E-2	2.404759E-4	1.179262E-2	3.798804E-3	7.236424E-3
10/19/2017  17:44:40.260896	6.819398E+0	1.069731E-3	1.828467E-3	1.314826E-2	2.331575E-3	6.108510E-3	6.668771E-3	5.546956E-4
10/19/2017  17:44:40.261896	4.264669E+0	6.704629E-4	1.820629E-3	1.580657E-2	3.735723E-3	1.064526E-2	1.845987E-3	5.578815E-3
10/19/2017  17:44:40.262896	1.305107E+0	1.154228E-2	3.715918E-3	8.134641E-3	4.252500E-3	7.435478E-3	5.284974E-3	9.119951E-3
10/19/2017  17:44:40.263896	1.156936E+0	3.880912E-3	6.556900E-3	2.332696E-3	9.825867E-3	1.501177E-4	4.760741E-3	6.717057E-4
10/19/2017  17:44:40.264896	5.862573E+0	1.132382E-2	8.266645E-3	4.730845E-3	2.438508E-3	1.279381E-2	4.923457E-4	4.663887E-3
10/19/2017  17:44:40.265896	2.863290E+0	7.777615E-3	4.606657E-3	9.880023E-3	3.763618E-3	6.010339E-4	6.184873E-3	3.249923E-3
10/19/2017  17:44:40.266896	3.065245E+0	9.475219E-4	4.111575E-3	1.015435E-2	7.735691E-3	3.101802E-3	1.735598E-3	2.061542E-4
10/19/2017  17:44:40.267896	1.654618E+0	6.618324E-3	3.159603E-3	5.296509E-3	5.941753E-3	3.015320E-3	1.189616E-3	4.334247E-3
10/19/2017  17:44:40.268896	3.530549E-1	5.544354E-4	3.653162E-3	3.586533E-4	5.803111E-3	8.590527E-3	5.035895E-3	4.982597E-4
10/19/2017  17:44:40.269896	5.758586E-3	2.956183E-3	6.498611E-3	1.946943E-3	8.816252E-3	5.278022E-3	5.634310E-3	1.184196E-2
10/19/2017  17:44:40.270896	2.093912E+0	7.249792E-3	6.130372E-3	1.500763E-2	4.958989E-3	1.250959E-3	2.291717E-4	3.689225E-3
10/19/2017  17:44:40.271896	4.795759E+0	1.005077E-3	7.164031E-4	8.207409E-3	7.914320E-3	7.163004E-3	2.355674E-4	6.986747E-3
10/19/2017  17:44:40.272896	3.064005E+0	4.074385E-3	2.954677E-3	1.326049E-2	3.128547E-3	1.836976E-3	3.425856E-3	4.446220E-4
10/19/2017  17:44:40.273896	1.665242E-1	2.879249E-3	2.148719E-3	2.935951E-3	9.860342E-3	3.216361E-3	8.651328E-3	5.566049E-3
10/19/2017  17:44:40.274896	3.067458E-1	1.897204E-3	1.521267E-3	4.781403E-3	3.016145E-3	2.210294E-3	1.332441E-3	7.248264E-3
10/19/2017  17:44:40.275896	1.267965E+0	3.093257E-3	1.041811E-3	1.627851E-3	6.766069E-3	6.459025E-4	1.303119E-3	1.482686E-3
10/19/2017  17:44:40.276896	9.023778E-1	5.467296E-3	8.638609E-3	3.315844E-4	3.442442E-3	8.296550E-3	1.155821E-3	4.683302E-3
10/19/2017  17:44:40.277896	3.791890E-1	1.670274E-3	9.458140E-3	2.603402E-3	8.672776E-3	7.762043E-3	4.500625E-3	3.792055E-3
10/19/2017  17:44:40.278896	6.898709E-1	9.993015E-3	3.722430E-3	1.619501E-2	1.347973E-3	8.939878E-3	5.885969E-3	6.667320E-3
10/19/2017  17:44:40.279896	4.815591E-1	4.257062E-3	6.163739E-3	4.919502E-3	3.267191E-3	3.170473E-3	7.763960E-3	2.174996E-3
10/19/2017  17:44:40.280896	3.608160E+0	1.159875E-2	2.261745E-3	2.454959E-3	2.194387E-3	8.366441E-3	9.732938E-3	1.459394E-3
10/19/2017  17:44:40.281896	9.060068E-1	2.252152E-3	2.778406E-3	7.290241E-3	1.337685E-3	8.172072E-4	1.608377E-3	3.056064E-3
10/19/2017  17:44:40.282896	3.314297E+0	1.174968E-2	3.622971E-3	1.857107E-2	6.641897E-4	7.893129E-3	1.748922E-2	3.481569E-3
10/19/2017  17:44:40.283896	8.303647E-1	3.343253E-3	5.757843E-3	2.297944E-3	3.834837E-3	1.457292E-3	3.733368E-4	8.620462E-3
10/19/2017  17:44:40.284896	4.370454E+0	1.560047E-4	7.502877E-3	1.139712E-3	1.734394E-3	1.108475E-3	5.440540E-3	6.433034E-4
10/19/2017  17:44:40.285896	4.210058E+0	2.339356E-3	1.099129E-2	4.539388E-3	3.008316E-3	8.770471E-3	4.167726E-3	2.528676E-4
10/19/2017  17:44:40.286896	1.220783E+0	6.439874E-3	4.076317E-3	1.434970E-2	2.354314E-3	5.319245E-3	5.046071E-3	1.948940E-3
10/19/2017  17:44:40.287896	1.268869E-1	6.788415E-3	1.062875E-2	3.141781E-3	4.553706E-3	9.504358E-3	4.830359E-3	1.116242E-2
								
10/19/2017  17:44:40.288896	6.247014E-1	1.153632E-2	7.149371E-3	1.932680E-3	5.632119E-3	4.785500E-3	9.472546E-3	3.781619E-3
10/19/2017  17:44:40.289896	1.731668E-1	3.710647E-4	6.747176E-4	1.100206E-2	7.341960E-3	4.767303E-3	1.370936E-3	6.652219E-3
10/19/2017  17:44:40.290896	7.395884E-1	1.577272E-2	9.512591E-3	5.931555E-3	1.431072E-2	1.299029E-4	3.820561E-3	1.808171E-3
10/19/2017  17:44:40.291896	1.256977E+0	5.894508E-3	3.815581E-3	1.573183E-2	3.690502E-3	6.804251E-3	7.697854E-4	1.379711E-3
10/19/2017  17:44:40.292896	7.109768E-1	2.720791E-3	3.914034E-4	5.603462E-3	8.390346E-3	1.464981E-3	9.012916E-4	3.258556E-3
10/19/2017  17:44:40.293896	4.779710E-2	3.805620E-3	4.983729E-3	3.226835E-3	1.540876E-3	3.605567E-3	1.017126E-3	1.539763E-4
10/19/2017  17:44:40.294896	5.299646E-1	3.826748E-3	5.359023E-3	1.487094E-3	1.153776E-2	4.395028E-3	7.923526E-3	1.018283E-2
10/19/2017  17:44:40.295896	3.778788E+0	4.122548E-3	4.905141E-3	4.073280E-3	9.354578E-3	8.401648E-3	7.383778E-4	2.618551E-3
10/19/2017  17:44:40.296896	8.195756E-2	2.136535E-3	8.048780E-4	3.072657E-3	3.290309E-3	1.194706E-2	7.718025E-3	4.341179E-3
10/19/2017  17:44:40.297896	6.731364E+0	5.857254E-3	3.753802E-3	3.891046E-3	6.786817E-3	1.340043E-2	5.761133E-3	9.033005E-3
10/19/2017  17:44:40.298896	2.414556E+0	1.026586E-2	2.166666E-3	1.819718E-2	8.368588E-3	1.488427E-2	3.541440E-3	3.072542E-3
10/19/2017  17:44:40.299896	1.887852E+0	1.149448E-3	5.056094E-3	3.568323E-4	9.439512E-3	1.090783E-2	8.115747E-3	1.089718E-2
10/19/2017  17:44:40.300896	1.272509E+0	1.662965E-2	1.302672E-2	7.468474E-3	1.515708E-3	1.256586E-2	4.521464E-3	1.443353E-3
10/19/2017  17:44:40.301896	3.183896E-1	6.096257E-3	9.262804E-3	3.222631E-3	7.488468E-3	7.928764E-3	1.210410E-2	2.891129E-3
10/19/2017  17:44:40.302896	2.337741E+0	1.093597E-2	1.014064E-2	3.648316E-3	2.303579E-3	9.590028E-3	3.256500E-3	8.442731E-3
10/19/2017  17:44:40.303896	1.433398E+0	4.652846E-4	4.260125E-3	6.437099E-3	7.134684E-3	1.483971E-3	1.643178E-2	1.370442E-3
10/19/2017  17:44:40.304896	6.420569E-1	5.995730E-3	1.908230E-2	4.004653E-3	5.670491E-3	3.680214E-3	2.944392E-3	9.294857E-3
10/19/2017  17:44:40.305896	1.178223E+0	5.860902E-4	8.471113E-3	2.039118E-3	5.025192E-3	2.567974E-3	2.689629E-3	8.614995E-3
10/19/2017  17:44:40.306896	1.586830E+0	2.616393E-3	1.483616E-2	1.343234E-2	5.144490E-3	5.640136E-3	4.349459E-3	2.823131E-3
10/19/2017  17:44:40.307896	7.197394E-1	6.295170E-3	1.543640E-3	1.015057E-2	7.251800E-3	9.761616E-4	1.012883E-3	9.016412E-3
10/19/2017  17:44:40.308896	2.161435E+0	2.846284E-3	7.123498E-4	1.627828E-3	4.174209E-3	4.040486E-3	8.816032E-3	5.488081E-3
10/19/2017  17:44:40.309896	1.186829E+0	1.222701E-2	2.278275E-6	4.066827E-3	2.159915E-3	4.802336E-3	3.227801E-3	1.116225E-2
10/19/2017  17:44:40.310896	6.005077E-1	1.108513E-3	6.444566E-3	4.991345E-3	9.895897E-3	1.139709E-3	4.427721E-3	7.545921E-3
10/19/2017  17:44:40.311896	3.635204E+0	9.229504E-3	6.154185E-3	6.286559E-3	1.728236E-3	4.668462E-3	5.126864E-3	6.322415E-3
10/19/2017  17:44:40.312896	2.058419E-1	1.396970E-3	6.618406E-3	3.315374E-3	7.481860E-3	3.593167E-3	2.440986E-3	5.064656E-3
10/19/2017  17:44:40.313896	4.488172E+0	1.587917E-3	3.822377E-3	7.611116E-4	1.043548E-2	3.831064E-4	5.534430E-3	5.682523E-3
10/19/2017  17:44:40.314896	4.373487E+0	6.572207E-4	3.346901E-4	2.928220E-3	6.777543E-3	4.364765E-3	6.890741E-5	4.378239E-3
10/19/2017  17:44:40.315896	1.220756E+0	2.067139E-3	8.936398E-3	4.200942E-3	3.167121E-3	1.591240E-3	3.177461E-3	1.378762E-2
10/19/2017  17:44:40.316896	1.012194E+0	5.570816E-3	1.474901E-3	3.621940E-2	9.096487E-3	3.127767E-3	7.190623E-3	3.654431E-3
10/19/2017  17:44:40.317896	6.506045E-1	3.200484E-3	7.194083E-3	1.738015E-2	7.808231E-3	3.776331E-3	6.975372E-3	1.695205E-2
10/19/2017  17:44:40.318896	3.072743E+0	6.568621E-3	8.134829E-3	1.482982E-2	7.726082E-3	2.034000E-4	9.711845E-3	1.830610E-3
10/19/2017  17:44:40.319896	2.804829E+0	3.949729E-3	6.815501E-3	1.401251E-2	5.384825E-3	8.644408E-3	2.908808E-3	5.202160E-3
10/19/2017  17:44:40.320896	4.060410E+0	2.393351E-5	1.061212E-2	2.442301E-3	2.863190E-3	8.885578E-3	1.040788E-2	1.205435E-3
								
10/19/2017  17:44:40.321896	5.752460E-1	8.400701E-3	1.033205E-2	1.002793E-3	1.055227E-3	5.124981E-3	6.197259E-5	9.025114E-3
10/19/2017  17:44:40.322896	2.370958E+0	3.153232E-3	1.281196E-2	2.106183E-3	9.458223E-3	1.299614E-3	1.587614E-3	1.000335E-3
10/19/2017  17:44:40.323896	1.691405E+0	3.973072E-3	6.003148E-3	7.930809E-3	3.790649E-3	8.772275E-3	1.727305E-3	3.132249E-3
10/19/2017  17:44:40.324896	5.356855E-1	3.875238E-3	3.028136E-3	1.117725E-3	2.046357E-3	4.895755E-4	2.580214E-4	2.205341E-3
10/19/2017  17:44:40.325896	6.294504E-1	3.659388E-4	2.368126E-3	2.509611E-3	1.466289E-3	2.778374E-3	2.657749E-3	5.346156E-4
10/19/2017  17:44:40.326896	1.725116E+0	1.671955E-4	1.786712E-3	5.032443E-3	2.979302E-3	4.654464E-3	3.314340E-4	7.796245E-3
10/19/2017  17:44:40.327896	1.184045E+0	1.971386E-3	1.281202E-3	3.967044E-3	1.610392E-3	1.738468E-2	2.961528E-3	5.789869E-3
10/19/2017  17:44:40.328896	1.178065E+0	6.847925E-3	3.129086E-3	1.318535E-2	5.717463E-4	6.370401E-3	4.015440E-4	2.315794E-3
10/19/2017  17:44:40.329896	6.344631E-1	1.602431E-3	4.431056E-3	2.660030E-3	6.161921E-3	4.494702E-3	8.593109E-4	2.929676E-3
10/19/2017  17:44:40.330896	1.660747E-1	1.974243E-2	6.682088E-4	5.958306E-3	2.239011E-3	4.972791E-3	1.105778E-2	2.066601E-3
10/19/2017  17:44:40.331896	7.041328E-1	1.049011E-3	9.685736E-3	3.350172E-3	5.156609E-3	6.779687E-3	3.658323E-3	3.059594E-3
10/19/2017  17:44:40.332896	3.072258E+0	1.262541E-2	3.125935E-3	8.809839E-3	3.574489E-3	8.748572E-3	2.430866E-3	5.919455E-3
10/19/2017  17:44:40.333896	3.601408E+0	3.968980E-3	1.322541E-2	9.325279E-3	4.650063E-3	1.562852E-3	6.462941E-3	1.095998E-3
10/19/2017  17:44:40.334896	2.181599E-1	2.835457E-4	2.106687E-3	6.730371E-4	1.098548E-3	2.970505E-3	2.702051E-3	2.047549E-3
10/19/2017  17:44:40.335896	5.005829E+0	1.941145E-3	4.940717E-3	8.853511E-3	5.274122E-4	5.216575E-4	2.179835E-3	2.098237E-3
10/19/2017  17:44:40.336896	8.068614E-1	3.255544E-3	2.847870E-3	1.000388E-2	1.864688E-3	4.621806E-3	2.246950E-3	5.610515E-3
10/19/2017  17:44:40.337896	2.206860E+0	4.184887E-3	4.676786E-3	1.376491E-2	2.840705E-3	7.236612E-3	6.807578E-4	7.874797E-3
10/19/2017  17:44:40.338896	1.514578E+0	5.579746E-3	4.841286E-3	1.323522E-2	7.439549E-3	2.129574E-3	8.394873E-3	5.436153E-4
10/19/2017  17:44:40.339896	7.743336E-2	3.040486E-3	1.561600E-3	1.268351E-2	4.477955E-3	1.365629E-2	7.169421E-4	6.044138E-3
10/19/2017  17:44:40.340896	3.054762E-1	1.279371E-2	1.447737E-3	3.144323E-3	1.141772E-2	6.514745E-3	4.218040E-3	6.374409E-3
10/19/2017  17:44:40.341896	2.263088E+0	7.339416E-3	6.590747E-4	1.108690E-2	2.591855E-3	2.422845E-3	9.984183E-3	6.121663E-4
10/19/2017  17:44:40.342896	2.271462E+0	8.746515E-3	1.014043E-2	4.894988E-3	7.148801E-3	3.731633E-3	3.793519E-3	4.909097E-3
10/19/2017  17:44:40.343896	1.317557E+0	1.587135E-2	8.072067E-3	3.334250E-3	7.415445E-3	3.753680E-3	8.394741E-3	8.306874E-4
10/19/2017  17:44:40.344896	4.817915E-1	5.187574E-3	9.437147E-3	1.183920E-2	6.424390E-3	1.193803E-2	1.198376E-3	4.223893E-3
10/19/2017  17:44:40.345896	3.928355E-1	9.717482E-3	4.635155E-3	7.954431E-3	2.425893E-3	3.508473E-3	9.260035E-3	4.116561E-3
10/19/2017  17:44:40.346896	3.423768E-1	2.337972E-3	2.870228E-3	9.441257E-3	1.810667E-3	5.191308E-3	9.152512E-3	1.087763E-2
10/19/2017  17:44:40.347896	4.796696E-1	1.149220E-2	5.475466E-3	8.465131E-3	2.684100E-3	4.022013E-3	5.685446E-3	7.927534E-3
10/19/2017  17:44:40.348896	1.577942E+0	7.936312E-3	7.459168E-3	6.669026E-3	4.837149E-3	3.429368E-3	8.922488E-3	2.801249E-3
10/19/2017  17:44:40.349896	2.966440E+0	4.715956E-3	4.770650E-3	1.106933E-2	1.696970E-2	1.276388E-2	2.876062E-3	1.055485E-2
10/19/2017  17:44:40.350896	6.085447E-1	7.967064E-3	5.294180E-3	8.969539E-3	1.323104E-2	6.732499E-4	3.881013E-3	4.199679E-3
10/19/2017  17:44:40.351896	5.200848E-1	3.084388E-3	1.000196E-3	7.170384E-3	6.765167E-4	2.965095E-3	1.845985E-3	1.090191E-2
10/19/2017  17:44:40.352896	1.017489E+0	4.181143E-3	3.737857E-3	2.508743E-3	4.989802E-3	3.771055E-3	5.190372E-3	1.968609E-3
10/19/2017  17:44:40.353896	1.341367E+0	4.250754E-3	1.668071E-3	2.533455E-3	6.081483E-3	3.434982E-3	5.209478E-3	9.721818E-3
								
10/19/2017  17:44:40.354896	2.366421E+0	6.101100E-3	2.821789E-3	1.329107E-2	1.037292E-2	5.221953E-3	8.355741E-4	3.824487E-4
10/19/2017  17:44:40.355896	8.028744E-1	7.901406E-3	2.739203E-3	5.434424E-3	2.033873E-3	4.215842E-3	4.772338E-4	1.055155E-2
10/19/2017  17:44:40.356896	1.794497E-1	3.740757E-3	6.275032E-5	3.327306E-3	2.629873E-3	5.300749E-3	2.195870E-3	4.138132E-3
10/19/2017  17:44:40.357896	3.089680E+0	1.257393E-2	5.732093E-3	7.773026E-3	5.364300E-3	1.533258E-3	1.025402E-3	2.831158E-3
10/19/2017  17:44:40.358896	2.520530E+0	5.113410E-3	7.318389E-3	1.201668E-2	4.087405E-3	6.871940E-3	6.126454E-3	3.763094E-3
10/19/2017  17:44:40.359896	4.008583E-1	1.350330E-2	6.676705E-3	1.591641E-3	1.370204E-3	1.254779E-2	3.367583E-3	2.024786E-3
10/19/2017  17:44:40.360896	1.760207E+0	4.590866E-3	3.727080E-4	1.014976E-3	1.254890E-2	6.478184E-4	3.008443E-3	6.512273E-3
10/19/2017  17:44:40.361896	2.084593E+0	7.378310E-3	1.269935E-2	7.442936E-3	2.020819E-3	5.185906E-3	4.577883E-3	4.885025E-3
10/19/2017  17:44:40.362896	4.229909E-1	3.497424E-3	3.119552E-3	4.006397E-3	6.585834E-3	1.814090E-3	9.112047E-3	4.472943E-4
10/19/2017  17:44:40.363896	2.569003E-2	3.810436E-3	7.097863E-3	6.643351E-3	2.773701E-3	7.838554E-3	4.943650E-3	8.344018E-3
10/19/2017  17:44:40.364896	1.183219E+0	3.553814E-3	8.750441E-3	1.035507E-2	6.295494E-3	9.099959E-3	5.197917E-3	9.745522E-4
10/19/2017  17:44:40.365896	3.117555E-1	9.009968E-3	1.059527E-3	1.890210E-3	1.869013E-3	1.084331E-2	3.062758E-3	3.341785E-3
10/19/2017  17:44:40.366896	3.659733E+0	9.967438E-3	1.078846E-3	5.479523E-3	9.221767E-4	5.002579E-3	7.796824E-3	1.635972E-3
10/19/2017  17:44:40.367896	3.892966E+0	6.320520E-3	1.077392E-3	1.741898E-2	1.820868E-3	5.018812E-3	2.076060E-3	2.339902E-3
10/19/2017  17:44:40.368896	2.878646E+0	4.168493E-3	4.911624E-3	1.003050E-3	3.407175E-3	3.240059E-3	4.075917E-3	3.538290E-3
10/19/2017  17:44:40.369896	1.106166E+0	2.185868E-3	1.959145E-3	5.288153E-4	1.206117E-4	5.977208E-3	1.044117E-3	2.934593E-3
10/19/2017  17:44:40.370896	1.998172E+0	1.308022E-3	2.131794E-3	1.009257E-2	9.832256E-3	1.037585E-3	8.253701E-4	5.582452E-3
10/19/2017  17:44:40.371896	1.497653E+0	5.589664E-4	6.133134E-3	3.991356E-3	3.070483E-3	2.210563E-3	4.157393E-3	1.784481E-3
10/19/2017  17:44:40.372896	2.732081E-1	4.448382E-4	3.872615E-3	1.789377E-2	8.556976E-4	3.833510E-3	4.880285E-3	2.016592E-2
10/19/2017  17:44:40.373896	1.521329E+0	1.125810E-3	4.366571E-3	7.841027E-3	7.537945E-3	2.938645E-3	7.063172E-3	2.351877E-3
10/19/2017  17:44:40.374896	6.985998E-2	7.503701E-3	5.056703E-3	9.559882E-4	7.007804E-3	8.954143E-3	1.740833E-3	1.203838E-2
10/19/2017  17:44:40.375896	4.495764E-1	8.744194E-3	2.994656E-3	2.562978E-3	3.951404E-3	9.883218E-3	5.728669E-3	5.015804E-3
10/19/2017  17:44:40.376896	9.245177E-1	5.310411E-3	6.114342E-4	5.187781E-3	6.307225E-3	2.450274E-3	5.822568E-3	8.983056E-3
10/19/2017  17:44:40.377896	9.079610E-1	3.537912E-3	5.103841E-3	6.127100E-3	8.839036E-3	2.094244E-3	2.650175E-3	1.483335E-3
10/19/2017  17:44:40.378896	7.441460E-1	1.175914E-2	1.319953E-5	8.073409E-3	3.319458E-3	3.374241E-3	1.661164E-3	7.896653E-3
10/19/2017  17:44:40.379896	1.308388E-1	5.964408E-3	1.123551E-2	4.305987E-3	8.399183E-3	2.505013E-3	2.912421E-3	2.747057E-3
10/19/2017  17:44:40.380896	1.584556E+0	1.238740E-2	4.729405E-3	4.172141E-3	2.827511E-3	9.741205E-3	4.552225E-3	9.517456E-4
10/19/2017  17:44:40.381896	2.607053E+0	4.725448E-3	2.442584E-5	1.211117E-3	8.859714E-3	2.702637E-3	1.065100E-2	2.334189E-3
10/19/2017  17:44:40.382896	1.250156E+0	8.350476E-4	6.945216E-3	4.630940E-3	2.779406E-3	6.146658E-3	2.660211E-3	2.237121E-3
10/19/2017  17:44:40.383896	2.511413E+0	8.308515E-3	6.633641E-3	2.519819E-3	3.025219E-4	8.217712E-3	1.201242E-3	1.930799E-3
10/19/2017  17:44:40.384896	4.634830E+0	7.874870E-3	8.130940E-3	1.708751E-2	4.121521E-3	1.019990E-2	1.065521E-2	7.717449E-3
10/19/2017  17:44:40.385896	3.224543E+0	6.766754E-3	3.507795E-3	2.042114E-2	4.006221E-3	1.160325E-2	3.102508E-3	2.975425E-3
10/19/2017  17:44:40.386896	3.900512E-1	4.897266E-3	8.308297E-3	5.574112E-3	4.540417E-3	1.602832E-2	1.759866E-3	2.363938E-4
								
10/19/2017  17:44:40.387896	1.822278E+0	1.562287E-2	3.542328E-3	9.320260E-3	2.501704E-3	7.053857E-4	1.437520E-3	1.744027E-3
10/19/2017  17:44:40.388896	3.501176E+0	3.218830E-3	6.015457E-4	5.013140E-3	5.515395E-3	1.041160E-3	3.291961E-3	7.248756E-4
10/19/2017  17:44:40.389896	2.602142E-1	4.614456E-3	8.226455E-4	2.086274E-3	1.198413E-2	1.270569E-3	4.116036E-3	6.516446E-5
10/19/2017  17:44:40.390896	2.762623E-1	2.831780E-3	3.016817E-3	1.217960E-2	3.154251E-3	7.369859E-3	1.783241E-3	6.616005E-3
10/19/2017  17:44:40.391896	9.539626E-1	4.906983E-3	4.974335E-3	6.746761E-4	8.186074E-3	1.473254E-3	1.310772E-3	6.079953E-3
10/19/2017  17:44:40.392896	1.244093E+0	5.267179E-3	4.447407E-3	1.459385E-3	7.454767E-3	6.704796E-3	1.035293E-3	6.768044E-3
10/19/2017  17:44:40.393896	4.342897E-1	6.929873E-3	2.256168E-3	4.573953E-3	2.346494E-3	8.718838E-3	3.649860E-3	2.047965E-3
10/19/2017  17:44:40.394896	1.133239E+0	4.199876E-3	6.252854E-3	1.488206E-5	5.050259E-3	5.453063E-3	3.729399E-3	1.082707E-3
10/19/2017  17:44:40.395896	2.263190E+0	4.676099E-3	1.782941E-3	6.918579E-3	1.168912E-3	7.019965E-3	1.176870E-4	3.008906E-3
10/19/2017  17:44:40.396896	1.370075E+0	5.292696E-4	5.162786E-4	7.346723E-3	7.274568E-3	1.928027E-3	1.048052E-2	8.776462E-3
10/19/2017  17:44:40.397896	2.997338E-1	1.867995E-3	1.626918E-2	4.632567E-3	6.258193E-3	7.231263E-3	1.001757E-2	3.251974E-3
10/19/2017  17:44:40.398896	1.556930E+0	4.432694E-4	3.027519E-3	1.361184E-2	4.031931E-3	2.013099E-4	5.675094E-3	8.420892E-3
10/19/2017  17:44:40.399896	8.233560E-2	1.420761E-3	1.151529E-2	9.831689E-3	9.663992E-3	6.801819E-3	9.556468E-3	1.154378E-3
10/19/2017  17:44:40.400896	4.623293E+0	6.187034E-3	1.552710E-3	1.348206E-2	4.858440E-3	3.681797E-3	2.142890E-3	1.015046E-3
10/19/2017  17:44:40.401896	2.249644E+0	2.381393E-3	6.243004E-4	4.705366E-3	1.334087E-2	2.412586E-4	4.556825E-3	3.767984E-3
10/19/2017  17:44:40.402896	2.253614E+0	5.829075E-3	2.158830E-3	7.028830E-3	6.709687E-3	6.648467E-3	2.282748E-4	7.556146E-3
10/19/2017  17:44:40.403896	9.150117E-2	1.391892E-3	5.709356E-3	2.454266E-3	8.443667E-3	1.987828E-3	8.468044E-3	1.016336E-2
10/19/2017  17:44:40.404896	5.249010E+0	2.448635E-3	6.573112E-3	3.828910E-3	5.256861E-3	1.125837E-3	9.250722E-4	3.800292E-3
10/19/2017  17:44:40.405896	6.440164E-2	1.226204E-3	2.489425E-3	4.749824E-3	5.176973E-3	1.143654E-2	4.623372E-3	3.938101E-3
10/19/2017  17:44:40.406896	4.092837E+0	1.540651E-2	7.837301E-3	5.667924E-3	1.135129E-2	3.924934E-3	5.478823E-3	1.656526E-3
10/19/2017  17:44:40.407896	9.557665E-1	9.193406E-3	3.586389E-3	3.742123E-3	1.555422E-3	7.096457E-3	8.100179E-4	1.027344E-3
10/19/2017  17:44:40.408896	4.163088E-1	1.494597E-3	2.314402E-3	1.791470E-3	6.587475E-3	5.498340E-3	6.605580E-3	1.427996E-3
10/19/2017  17:44:40.409896	4.124975E-1	7.372804E-3	6.624647E-3	3.048592E-3	1.131323E-3	2.669240E-3	6.385253E-3	4.798134E-3
10/19/2017  17:44:40.410896	1.934385E-1	7.785057E-3	1.458948E-3	8.401669E-3	9.872583E-3	9.367503E-3	9.735475E-3	3.564044E-3
10/19/2017  17:44:40.411896	1.296180E-1	6.343857E-3	9.897264E-3	4.592929E-3	6.378863E-3	3.968556E-3	9.131758E-3	4.098509E-4
10/19/2017  17:44:40.412896	2.171581E-1	9.170583E-3	1.958669E-3	1.025499E-2	2.370176E-3	7.675464E-3	5.994665E-3	4.377787E-4
10/19/2017  17:44:40.413896	4.144395E-1	2.009195E-3	7.018657E-3	3.423499E-3	1.569166E-3	1.300175E-4	6.402336E-3	4.115207E-4
10/19/2017  17:44:40.414896	1.171635E+0	3.339674E-3	5.731135E-4	3.411690E-3	1.023340E-3	8.525605E-3	5.798138E-4	1.624954E-2
10/19/2017  17:44:40.415896	7.889401E-1	3.602977E-3	9.247517E-3	1.090274E-2	2.469363E-3	4.891396E-3	6.847578E-3	5.579188E-3
10/19/2017  17:44:40.416896	2.500369E+0	8.457108E-3	3.769694E-3	1.564886E-2	2.928720E-3	1.275312E-3	1.096438E-4	6.661500E-3
10/19/2017  17:44:40.417896	6.774034E-1	8.694945E-4	2.830075E-5	6.717671E-3	1.955761E-3	9.415016E-4	1.921911E-3	1.123091E-3
10/19/2017  17:44:40.418896	1.888888E+0	3.423221E-3	6.303854E-3	6.669559E-3	3.286572E-3	4.604635E-3	1.170889E-3	6.269618E-3
10/19/2017  17:44:40.419896	1.694285E+0	2.291001E-3	2.336503E-3	1.968914E-3	1.733952E-3	1.611103E-3	2.962807E-3	1.026480E-2
								
10/19/2017  17:44:40.420896	3.886444E+0	1.656150E-3	1.136275E-2	5.117887E-3	3.392084E-3	6.587109E-3	6.786099E-3	1.750434E-3
10/19/2017  17:44:40.421896	1.942355E+0	1.109731E-2	4.201849E-3	8.548958E-3	1.725342E-3	8.937197E-4	5.747552E-3	7.714834E-3
10/19/2017  17:44:40.422896	3.848535E+0	6.102137E-3	4.577468E-4	4.184447E-3	2.654859E-3	2.075063E-2	8.874154E-4	1.065771E-3
10/19/2017  17:44:40.423896	3.520309E+0	2.182088E-3	4.841063E-3	1.764717E-2	2.898264E-3	1.746934E-3	6.229909E-3	3.091759E-4
10/19/2017  17:44:40.424896	3.873889E+0	3.577149E-3	3.758786E-3	4.257216E-3	5.313683E-3	6.481437E-3	1.040856E-4	4.224365E-3
10/19/2017  17:44:40.425896	6.164860E-1	9.845779E-3	2.807209E-3	5.430334E-3	1.952496E-3	9.101269E-3	3.628797E-3	3.306590E-3
10/19/2017  17:44:40.426896	2.100941E+0	8.763595E-3	1.982280E-3	2.606258E-3	3.754851E-3	2.034014E-3	4.416182E-3	7.548150E-3
10/19/2017  17:44:40.427896	1.125606E+0	7.393481E-3	7.245051E-3	1.155992E-2	5.284894E-4	3.344439E-3	8.944403E-3	2.630727E-3
10/19/2017  17:44:40.428896	2.072712E+0	8.145642E-3	2.246006E-3	2.235043E-3	2.478329E-3	6.358692E-3	3.109973E-3	1.074524E-2
10/19/2017  17:44:40.429896	1.211331E-1	9.515486E-4	3.970725E-3	1.527192E-3	1.136207E-2	1.611844E-3	4.313676E-3	3.138773E-3
10/19/2017  17:44:40.430896	1.482749E+0	8.364063E-3	4.731935E-3	5.508835E-3	6.360540E-3	1.514875E-3	3.254325E-3	1.348583E-3
10/19/2017  17:44:40.431896	8.055806E-1	1.931346E-3	7.155668E-3	1.070730E-2	8.239961E-4	1.372054E-3	3.535797E-3	5.896783E-3
10/19/2017  17:44:40.432896	9.912371E-1	8.193479E-3	3.733393E-3	1.977544E-2	9.473355E-3	1.219530E-3	1.276229E-3	9.786653E-3
10/19/2017  17:44:40.433896	9.354508E-1	2.580985E-3	8.790477E-3	4.446322E-3	5.969409E-3	1.061362E-3	6.334239E-3	1.270887E-2
10/19/2017  17:44:40.434896	2.792475E-1	1.090684E-3	4.184171E-3	1.297524E-2	6.716887E-3	2.889279E-3	6.522842E-3	4.518881E-3
10/19/2017  17:44:40.435896	4.679756E-2	7.281595E-3	1.681389E-3	6.906338E-3	1.876452E-3	6.198149E-3	2.077327E-3	1.657603E-2
10/19/2017  17:44:40.436896	9.299257E-1	4.424024E-3	8.089154E-3	1.641031E-2	7.284186E-3	4.783683E-3	5.101447E-3	7.633095E-3
10/19/2017  17:44:40.437896	3.138210E-1	1.768284E-2	9.391874E-3	9.348986E-3	2.384997E-4	1.138983E-3	3.553493E-3	1.199167E-2
10/19/2017  17:44:40.438896	1.286234E-1	8.302148E-3	8.641911E-3	4.507495E-3	8.112355E-3	1.188517E-3	3.326622E-3	1.703347E-3
10/19/2017  17:44:40.439896	1.829198E-1	1.750304E-2	8.973691E-3	6.699978E-3	1.148483E-2	4.477522E-3	6.802862E-3	2.720164E-3
10/19/2017  17:44:40.440896	1.439353E+0	6.467042E-3	2.910768E-3	9.142667E-3	2.413797E-3	3.927335E-3	3.472213E-3	8.794165E-3
10/19/2017  17:44:40.441896	4.215377E+0	6.743444E-3	1.314178E-2	8.151424E-3	3.469610E-3	1.271084E-2	4.563716E-3	9.199696E-4
10/19/2017  17:44:40.442896	3.188740E+0	1.152856E-2	3.865633E-3	4.821112E-3	6.845526E-3	9.047574E-3	9.098958E-3	6.822476E-3
10/19/2017  17:44:40.443896	7.630526E-1	2.404162E-3	8.170864E-3	3.688474E-3	3.652471E-3	1.758811E-2	4.925961E-3	2.142332E-3
10/19/2017  17:44:40.444896	3.483649E+0	1.884025E-2	6.792473E-3	3.343993E-3	1.712730E-3	1.275720E-2	5.131189E-3	5.444456E-3
10/19/2017  17:44:40.445896	3.112474E+0	6.825840E-4	1.070600E-2	1.064894E-2	7.674997E-3	1.627582E-2	7.161361E-3	8.994374E-3
10/19/2017  17:44:40.446896	1.584874E+0	4.641519E-3	1.433358E-3	2.216885E-2	2.741953E-3	9.046907E-3	4.038213E-3	2.916828E-3
10/19/2017  17:44:40.447896	1.910074E+0	3.300349E-3	8.692073E-3	1.689818E-2	2.566389E-3	1.908778E-3	3.314816E-4	2.712840E-6
10/19/2017  17:44:40.448896	7.218171E-1	5.829319E-3	3.705813E-3	9.564696E-3	1.232273E-2	2.567905E-3	7.064525E-3	3.752743E-3
10/19/2017  17:44:40.449896	1.156170E+0	1.218907E-3	9.062123E-3	8.249253E-3	3.795603E-3	9.810746E-4	3.330091E-3	1.672919E-3
10/19/2017  17:44:40.450896	1.014876E+0	1.554383E-3	4.397078E-3	2.653635E-3	1.545723E-2	8.318349E-4	2.620281E-3	1.641784E-4
10/19/2017  17:44:40.451896	3.435244E+0	2.634924E-4	1.742383E-3	8.650751E-4	2.743077E-3	1.764710E-3	2.093420E-3	1.279569E-2
10/19/2017  17:44:40.452896	5.091711E+0	6.714723E-3	5.357798E-3	1.636686E-2	7.635674E-3	7.892140E-3	2.368096E-3	6.343907E-3
								
10/19/2017  17:44:40.453896	1.828652E+0	2.455845E-3	6.884618E-3	5.474089E-3	8.090503E-3	7.152148E-3	3.119168E-3	2.419268E-3
10/19/2017  17:44:40.454896	1.386431E+0	4.342732E-3	6.178257E-3	7.775548E-3	4.947910E-3	9.907209E-3	1.743937E-3	4.399492E-3
10/19/2017  17:44:40.455896	2.084266E+0	9.835376E-3	3.634672E-4	8.651335E-3	1.542243E-3	2.484902E-3	3.424962E-3	1.797380E-3
10/19/2017  17:44:40.456896	4.325067E+0	2.339660E-3	3.936931E-4	1.010687E-2	1.427871E-3	7.870946E-3	2.290910E-3	5.427097E-3
10/19/2017  17:44:40.457896	2.450703E+0	1.668801E-3	4.221851E-4	6.774365E-3	1.258239E-3	4.416602E-3	6.376818E-4	1.127770E-3
10/19/2017  17:44:40.458896	2.050808E-1	4.815641E-3	1.543466E-3	2.093715E-3	7.030177E-3	2.207312E-4	4.235863E-4	2.991133E-4
10/19/2017  17:44:40.459896	3.526531E-1	5.673793E-3	5.493993E-4	3.028959E-3	1.213482E-4	3.188929E-3	2.951397E-4	7.614902E-3
10/19/2017  17:44:40.460896	2.826056E+0	3.166199E-4	6.153444E-3	2.458328E-5	4.571086E-3	1.121604E-3	4.204025E-3	6.700789E-3
10/19/2017  17:44:40.461896	1.374599E+0	7.878198E-3	1.745077E-3	4.143109E-3	7.026802E-3	4.703175E-4	5.719876E-3	3.056601E-3
10/19/2017  17:44:40.462896	7.577155E-1	1.022479E-2	1.124522E-3	5.606292E-3	1.056610E-2	2.142975E-2	1.271850E-3	3.311286E-3
10/19/2017  17:44:40.463896	2.195292E+0	3.460341E-3	4.774823E-3	4.943278E-3	4.468396E-4	9.558523E-3	5.616829E-3	5.177361E-3
10/19/2017  17:44:40.464896	9.715847E-1	2.478033E-3	5.408898E-3	2.952765E-3	3.780974E-3	1.012492E-2	5.969321E-4	9.992298E-3
10/19/2017  17:44:40.465896	3.606409E+0	7.988742E-3	1.185848E-3	1.472582E-3	3.985533E-3	2.769408E-3	3.399590E-4	3.900119E-3
10/19/2017  17:44:40.466896	1.964025E+0	4.373995E-3	3.520511E-3	3.421073E-4	1.592159E-3	6.552177E-3	1.231432E-4	4.078039E-3
10/19/2017  17:44:40.467896	2.065151E+0	3.684518E-3	3.874796E-3	1.503823E-3	6.829889E-3	2.367357E-3	1.933750E-3	4.186828E-3
10/19/2017  17:44:40.468896	2.601327E+0	6.967745E-3	5.916937E-3	5.923420E-3	6.632844E-3	6.338904E-3	2.805747E-3	9.130966E-4
10/19/2017  17:44:40.469896	1.500280E+0	3.611804E-3	6.010173E-4	4.065300E-3	1.229937E-2	8.898562E-3	2.976083E-3	2.797064E-3
10/19/2017  17:44:40.470896	8.000793E-1	6.157636E-3	8.536230E-3	4.016875E-3	9.383650E-3	8.435326E-3	3.624105E-3	4.306087E-3
10/19/2017  17:44:40.471896	3.530006E-1	1.555093E-3	9.338439E-3	1.778000E-3	4.093502E-3	3.708526E-3	2.726063E-3	7.641565E-3
10/19/2017  17:44:40.472896	3.853952E-1	2.471441E-3	1.483815E-3	1.031820E-2	2.069006E-3	2.908351E-3	6.452825E-3	2.342118E-4
10/19/2017  17:44:40.473896	5.153129E-1	4.644254E-3	3.505439E-3	5.297472E-3	2.729131E-4	3.772499E-3	6.174837E-3	1.533327E-3
10/19/2017  17:44:40.474896	1.376297E+0	8.586754E-3	3.686236E-3	8.344332E-3	3.787662E-4	1.840756E-2	6.545398E-3	2.038274E-3
10/19/2017  17:44:40.475896	2.876056E+0	8.079359E-3	1.220769E-2	1.258222E-2	8.776539E-3	1.660386E-3	3.792124E-3	7.964736E-3
10/19/2017  17:44:40.476896	2.674256E+0	2.861560E-3	5.122504E-3	1.826809E-2	2.869989E-3	7.960534E-3	1.417483E-2	4.558301E-4
10/19/2017  17:44:40.477896	6.945802E-1	1.270559E-3	1.357857E-3	3.939886E-3	4.203118E-3	2.753840E-3	2.087130E-3	2.501217E-3
10/19/2017  17:44:40.478896	1.737343E-1	5.863002E-3	2.931414E-3	1.517786E-3	2.091578E-3	9.929672E-4	1.195352E-2	6.149877E-3
10/19/2017  17:44:40.479896	3.196730E+0	9.706352E-3	1.230247E-2	1.102674E-2	3.482310E-3	3.290301E-3	9.998869E-4	1.238511E-4
10/19/2017  17:44:40.480896	3.490689E+0	2.850125E-3	5.488714E-3	1.010103E-2	3.312588E-3	3.491813E-3	2.878239E-3	3.947551E-3
10/19/2017  17:44:40.481896	7.764877E-1	6.385185E-3	4.009093E-3	8.729969E-3	5.049434E-3	1.465413E-2	4.197862E-3	7.977799E-5
10/19/2017  17:44:40.482896	1.956207E+0	3.932508E-3	2.777781E-3	8.641537E-4	6.496361E-3	1.497065E-3	3.813895E-3	6.554717E-3
10/19/2017  17:44:40.483896	3.436259E+0	4.106005E-3	1.770346E-3	2.681985E-3	7.116186E-3	6.592764E-3	2.391872E-3	3.920225E-3
10/19/2017  17:44:40.484896	3.946717E+0	3.253897E-3	5.003132E-3	1.546091E-3	9.186985E-4	5.126891E-3	6.684757E-3	2.113171E-3
10/19/2017  17:44:40.485896	2.944931E+0	6.526089E-3	3.269739E-3	8.633667E-3	5.044315E-3	1.999594E-3	2.317272E-3	5.689596E-3
								
10/19/2017  17:44:40.486896	1.094103E+0	9.914276E-3	4.039551E-3	2.088047E-3	9.057300E-3	3.980807E-3	3.644550E-3	5.745347E-4
10/19/2017  17:44:40.487896	2.724947E-1	2.965602E-3	3.874937E-3	3.014478E-4	5.418784E-3	6.868002E-3	7.829518E-3	2.341478E-3
10/19/2017  17:44:40.488896	3.776526E+0	7.503464E-4	7.525067E-3	1.188398E-2	1.001286E-2	3.955729E-3	7.784223E-3	1.110995E-2
10/19/2017  17:44:40.489896	6.878899E+0	7.403119E-3	4.211085E-3	2.035528E-3	1.650416E-3	5.691092E-3	4.666404E-3	8.588179E-3
10/19/2017  17:44:40.490896	5.881378E+0	1.092897E-3	3.126428E-3	1.177850E-2	1.287627E-2	2.918405E-3	1.730096E-3	1.001942E-2
10/19/2017  17:44:40.491896	3.219695E+0	1.776665E-4	7.715961E-3	1.255810E-2	2.752732E-3	3.966740E-3	3.914211E-4	3.937030E-5
10/19/2017  17:44:40.492896	3.008062E-2	8.393495E-3	8.377022E-3	6.316739E-3	2.379573E-3	5.726573E-3	2.421388E-3	2.109530E-3
10/19/2017  17:44:40.493896	4.457744E+0	3.089936E-3	1.153537E-2	5.612972E-3	9.954912E-3	5.824865E-3	5.982672E-3	1.247938E-3
10/19/2017  17:44:40.494896	2.111947E+0	1.908086E-3	3.585695E-3	6.886550E-3	3.640254E-3	8.506445E-3	2.316011E-3	1.391127E-3
10/19/2017  17:44:40.495896	2.714219E-1	4.936092E-3	6.606418E-3	3.206279E-3	8.660379E-3	1.448710E-3	9.139660E-3	4.861590E-3
10/19/2017  17:44:40.496896	6.521954E-2	2.632484E-3	2.091353E-3	1.217904E-3	4.479033E-3	2.997240E-3	5.540101E-3	3.463785E-3
10/19/2017  17:44:40.497896	2.965470E+0	9.069738E-3	7.574207E-4	3.691674E-3	3.948677E-3	4.524728E-3	1.210631E-2	4.294562E-3
10/19/2017  17:44:40.498896	4.282087E-1	2.473914E-3	4.502166E-4	1.320604E-2	1.478652E-2	1.255293E-3	2.923760E-3	1.568604E-3
10/19/2017  17:44:40.499896	1.149414E+0	3.296550E-3	1.761463E-3	6.437558E-3	9.931149E-3	7.146258E-4	3.939708E-3	9.492880E-4
10/19/2017  17:44:40.500896	1.057187E+0	8.510906E-3	1.099585E-2	4.323614E-3	6.211979E-3	7.619683E-3	2.339064E-4	6.359240E-3
10/19/2017  17:44:40.501896	1.400003E+0	4.934875E-3	2.115107E-4	4.579643E-3	1.063910E-2	5.977409E-3	1.920752E-3	2.936949E-3
10/19/2017  17:44:40.502896	6.715528E-1	3.241254E-3	5.171338E-3	3.647908E-3	1.995633E-3	6.085924E-3	3.210218E-3	2.462082E-3
10/19/2017  17:44:40.503896	3.763206E+0	1.192285E-2	1.835034E-3	3.577166E-4	3.591008E-3	8.506078E-4	8.224175E-5	5.953385E-3
10/19/2017  17:44:40.504896	6.264548E+0	5.864103E-3	1.663107E-3	8.222304E-3	5.727693E-3	1.400412E-3	1.852506E-3	1.540728E-2
10/19/2017  17:44:40.505896	8.574136E-1	1.828376E-2	5.405446E-3	1.810086E-2	1.113630E-3	1.049884E-2	1.110387E-3	1.161527E-3
10/19/2017  17:44:40.506896	9.897794E-1	5.726583E-3	3.174720E-3	9.728791E-3	3.254497E-3	6.941647E-3	8.232105E-4	7.738960E-3
10/19/2017  17:44:40.507896	2.621510E+0	4.058999E-3	5.652440E-4	1.423787E-2	9.661231E-3	1.332352E-4	1.435724E-3	5.403489E-3
10/19/2017  17:44:40.508896	1.568600E+0	5.236998E-3	4.895183E-3	4.024312E-3	7.369069E-3	7.840451E-3	1.280594E-3	4.918895E-3
10/19/2017  17:44:40.509896	1.035325E+0	5.562607E-3	4.780098E-3	9.262170E-3	1.318128E-2	4.218390E-3	2.800255E-3	1.186747E-2
10/19/2017  17:44:40.510896	3.416977E-1	7.724156E-3	3.777684E-3	1.067259E-2	4.491735E-3	7.349797E-3	2.547649E-3	2.793747E-3
10/19/2017  17:44:40.511896	1.624019E+0	5.623886E-3	4.763719E-3	5.384884E-3	9.838396E-4	7.266762E-3	2.325872E-3	1.145996E-2
10/19/2017  17:44:40.512896	3.295806E-1	2.632699E-3	4.988154E-3	1.469893E-2	6.138249E-3	4.463387E-3	1.050105E-3	4.342438E-3
10/19/2017  17:44:40.513896	2.769628E+0	5.419195E-3	1.516296E-3	1.296058E-2	2.576202E-3	5.342024E-3	1.898987E-3	1.574220E-2
10/19/2017  17:44:40.514896	4.265935E+0	5.398259E-3	5.418646E-3	2.876811E-3	6.039774E-3	7.399394E-3	2.360633E-3	6.207660E-4
10/19/2017  17:44:40.515896	3.180793E+0	7.591978E-3	4.618722E-3	8.401469E-3	4.953046E-3	2.036054E-3	3.302687E-3	2.660242E-3
10/19/2017  17:44:40.516896	1.086501E+0	5.714352E-3	3.641250E-3	6.929587E-3	1.965777E-3	1.726629E-3	2.559750E-3	4.257545E-3
10/19/2017  17:44:40.517896	3.555757E-1	7.349091E-3	1.035745E-2	2.770000E-3	6.031681E-3	2.534877E-3	1.913336E-3	3.910559E-3
10/19/2017  17:44:40.518896	2.092003E+0	1.230402E-2	2.509016E-3	2.686672E-3	3.999846E-3	9.099144E-3	4.603305E-3	4.614180E-3
								
10/19/2017  17:44:40.519896	1.869153E+0	6.838917E-4	2.019755E-2	3.382134E-3	3.624617E-3	8.483594E-3	4.127392E-3	7.313172E-3
10/19/2017  17:44:40.520896	1.409952E-1	4.611656E-3	1.073141E-2	2.558088E-3	3.989816E-3	3.493710E-3	8.583339E-3	9.987812E-3
10/19/2017  17:44:40.521896	1.915412E+0	5.352973E-3	6.804089E-3	1.041108E-2	1.369904E-2	6.064655E-4	2.281952E-3	5.696263E-3
10/19/2017  17:44:40.522896	1.560700E+0	9.765137E-4	6.215873E-3	6.288805E-3	7.450633E-4	1.165995E-3	2.701171E-3	1.346660E-2
10/19/2017  17:44:40.523896	2.531379E+0	5.820425E-3	6.281435E-3	2.254284E-3	1.558681E-2	4.069763E-3	1.128070E-2	4.048788E-3
10/19/2017  17:44:40.524896	3.401207E+0	1.242495E-2	3.328389E-3	1.150923E-2	1.120980E-2	1.451914E-2	2.855249E-3	8.126545E-3
10/19/2017  17:44:40.525896	7.664360E-1	4.375715E-4	4.869811E-3	4.316381E-3	1.065342E-2	6.615627E-3	1.321332E-3	6.884229E-3
10/19/2017  17:44:40.526896	7.225891E-1	1.902048E-2	1.562491E-3	5.567744E-3	5.257836E-3	2.943321E-3	1.289329E-4	1.048549E-2
10/19/2017  17:44:40.527896	1.260403E-1	2.670846E-3	2.525632E-3	2.140420E-3	2.415291E-3	5.254245E-3	3.211553E-3	5.723654E-3
10/19/2017  17:44:40.528896	4.283893E+0	3.797543E-3	7.232509E-3	5.281805E-3	7.174080E-3	1.614630E-3	1.328242E-2	3.149676E-3
10/19/2017  17:44:40.529896	2.813906E+0	7.779068E-3	1.254989E-2	5.288985E-3	4.441483E-3	1.095438E-2	1.632591E-3	8.720986E-3
10/19/2017  17:44:40.530896	4.723637E+0	2.121381E-3	1.134510E-2	6.652627E-3	5.631923E-3	5.857936E-3	2.581867E-3	6.707056E-3
10/19/2017  17:44:40.531896	3.745989E+0	9.617808E-3	6.866267E-3	2.254041E-2	4.691910E-3	2.282104E-3	7.105790E-3	1.561213E-3
10/19/2017  17:44:40.532896	1.049516E+0	3.923560E-3	1.338055E-3	1.611875E-2	2.578140E-3	5.885499E-3	6.438309E-3	1.770055E-2
10/19/2017  17:44:40.533896	2.471942E+0	1.630718E-4	2.310252E-3	2.677547E-2	8.972318E-3	4.421132E-3	6.542776E-3	2.090005E-3
10/19/2017  17:44:40.534896	4.364134E+0	8.688564E-3	4.465195E-3	8.454614E-4	4.748034E-3	3.841339E-4	2.586052E-5	6.179997E-3
10/19/2017  17:44:40.535896	3.139735E+0	8.258584E-4	1.486092E-3	3.612002E-3	1.257165E-3	4.102359E-3	2.049061E-3	3.729575E-3
10/19/2017  17:44:40.536896	3.094384E+0	2.611195E-3	5.564677E-3	7.105643E-3	8.234281E-4	1.533792E-3	6.859960E-3	2.603909E-3
10/19/2017  17:44:40.537896	2.631831E+0	5.143058E-4	1.582757E-3	5.118345E-3	2.463262E-3	4.883074E-3	4.270741E-3	8.324651E-3
10/19/2017  17:44:40.538896	3.606584E+0	6.352662E-3	2.952650E-3	5.426368E-3	2.781169E-3	7.438634E-3	4.734754E-3	8.811822E-3
10/19/2017  17:44:40.539896	1.773233E+0	1.260021E-2	5.321352E-4	1.299581E-2	2.277909E-4	6.263554E-3	3.407694E-3	4.932332E-4
10/19/2017  17:44:40.540896	6.541339E+0	6.843147E-3	1.520502E-2	1.167199E-2	2.027301E-3	1.109240E-2	6.103946E-3	8.725438E-3
10/19/2017  17:44:40.541896	4.763866E+0	2.060839E-4	1.064600E-2	2.186192E-2	3.077504E-3	1.123655E-3	4.781787E-3	1.658028E-3
10/19/2017  17:44:40.542896	1.049187E+0	7.854106E-3	7.756674E-3	3.843797E-3	4.035926E-3	1.515030E-3	9.135359E-4	6.797945E-3
10/19/2017  17:44:40.543896	1.633625E+0	6.021047E-3	4.563119E-3	1.392313E-3	1.981532E-3	2.930980E-3	4.291857E-3	6.605631E-3
10/19/2017  17:44:40.544896	2.212917E+0	9.729156E-3	2.386967E-3	1.847243E-3	3.525794E-3	1.325225E-3	2.052286E-3	1.020983E-2
10/19/2017  17:44:40.545896	3.457402E+0	2.638187E-3	4.549304E-3	3.645719E-5	1.346466E-3	1.868297E-3	5.796588E-3	6.547961E-3
10/19/2017  17:44:40.546896	3.616233E+0	3.887488E-3	5.528179E-3	8.941103E-3	3.837681E-3	6.198743E-3	2.391536E-3	3.787189E-4
10/19/2017  17:44:40.547896	9.181990E-3	8.455063E-3	1.645144E-3	9.549944E-3	2.696160E-3	9.483901E-3	2.762745E-3	3.335692E-3
10/19/2017  17:44:40.548896	4.481660E+0	6.961970E-4	5.056077E-3	1.101272E-2	3.733756E-3	3.836986E-4	3.643995E-3	7.950793E-4
10/19/2017  17:44:40.549896	3.052099E+0	2.274450E-3	6.089317E-4	3.217111E-3	7.947202E-3	1.175986E-3	8.150507E-3	7.359593E-3
10/19/2017  17:44:40.550896	3.962468E-1	6.901730E-3	1.684276E-3	8.379617E-3	1.030112E-2	4.011914E-3	3.274515E-3	8.197283E-4
10/19/2017  17:44:40.551896	1.340104E+0	7.817022E-3	1.953912E-3	1.201600E-3	2.656183E-3	6.841527E-3	3.972074E-3	6.728925E-3
								
10/19/2017  17:44:40.552896	4.423142E-1	2.472095E-3	7.777572E-3	6.995204E-3	4.209942E-3	8.018805E-3	1.208765E-5	1.731807E-3
10/19/2017  17:44:40.553896	2.623079E-1	8.730546E-3	9.120874E-3	8.596209E-3	6.009765E-3	4.509633E-4	5.455030E-4	5.533471E-3
10/19/2017  17:44:40.554896	2.947718E+0	6.024187E-3	1.083661E-2	1.532952E-2	3.758229E-3	1.020361E-2	4.884238E-3	5.517278E-3
10/19/2017  17:44:40.555896	6.433583E+0	1.583003E-3	2.975819E-3	7.268249E-5	1.846901E-5	5.751804E-3	4.796867E-3	1.005167E-3
10/19/2017  17:44:40.556896	4.681045E+0	1.022957E-2	1.135249E-3	8.170732E-3	6.293555E-3	3.345128E-4	1.416162E-2	2.958678E-3
10/19/2017  17:44:40.557896	6.521615E-1	7.209871E-4	1.608208E-2	4.126102E-3	4.400648E-3	9.186598E-3	1.346573E-2	7.687659E-5
10/19/2017  17:44:40.558896	1.111094E-1	5.122963E-3	8.264058E-4	1.112256E-2	2.551510E-3	1.609707E-3	1.138103E-2	5.887552E-3
10/19/2017  17:44:40.559896	1.109145E+0	1.896429E-4	1.718009E-2	1.183920E-2	2.843339E-3	3.270368E-5	8.613940E-4	3.107303E-3
10/19/2017  17:44:40.560896	1.902346E+0	1.089116E-2	8.259257E-3	5.030574E-4	1.918359E-3	1.111944E-2	1.659784E-3	6.390090E-3
10/19/2017  17:44:40.561896	1.853396E+0	2.728873E-3	1.309058E-2	1.411157E-2	6.792731E-3	1.093916E-2	4.995566E-3	1.009393E-2
10/19/2017  17:44:40.562896	3.279249E+0	3.376255E-3	9.194822E-3	1.186890E-2	6.512402E-3	8.183964E-3	5.094618E-4	7.224816E-4
10/19/2017  17:44:40.563896	6.110999E+0	6.498985E-4	2.190865E-3	5.331493E-3	2.105463E-3	8.647459E-3	2.410145E-3	9.351392E-3
10/19/2017  17:44:40.564896	3.527005E+0	1.711366E-2	4.196662E-3	1.348952E-3	1.076010E-2	3.885842E-3	1.178291E-4	3.827410E-3
10/19/2017  17:44:40.565896	2.297934E-1	2.707286E-4	8.321883E-3	2.419007E-3	1.035711E-2	1.132691E-2	8.154645E-4	3.611151E-5
10/19/2017  17:44:40.566896	1.952209E+0	1.888617E-2	3.321721E-3	3.738857E-3	3.979740E-4	3.039450E-3	1.122182E-2	3.803759E-4
10/19/2017  17:44:40.567896	1.568804E+0	3.412226E-3	7.996929E-3	3.446346E-3	3.746495E-3	2.402950E-3	5.307879E-3	2.677160E-3
10/19/2017  17:44:40.568896	6.296004E-1	8.920284E-3	3.795065E-3	1.204252E-3	5.915292E-3	5.509064E-3	2.996193E-3	1.912410E-3
10/19/2017  17:44:40.569896	1.779991E+0	2.387822E-3	1.070253E-2	3.939935E-3	1.133013E-2	9.066654E-3	1.460056E-4	4.650825E-3
10/19/2017  17:44:40.570896	3.762506E+0	3.045166E-3	8.008651E-3	2.502451E-3	6.866496E-3	5.193455E-3	6.022067E-3	9.749143E-3
10/19/2017  17:44:40.571896	2.966155E+0	6.880429E-3	4.797659E-3	1.392851E-2	1.401769E-3	5.697702E-3	2.933279E-3	1.748250E-3
10/19/2017  17:44:40.572896	7.100595E-1	1.555150E-3	9.588476E-3	6.759407E-4	1.759128E-3	5.919548E-3	8.190252E-3	1.354464E-3
10/19/2017  17:44:40.573896	9.261335E-1	5.516969E-4	1.546975E-3	1.994678E-2	4.359419E-3	4.447373E-3	6.762328E-4	1.176219E-3
10/19/2017  17:44:40.574896	2.704155E+0	8.122809E-3	1.600492E-3	3.196546E-4	1.384129E-2	5.541923E-3	6.033967E-3	4.978127E-3
10/19/2017  17:44:40.575896	1.015760E+1	3.252287E-3	5.235460E-4	1.439332E-2	5.534890E-3	3.141661E-3	4.315714E-3	9.689533E-3
10/19/2017  17:44:40.576896	6.738434E+0	1.190333E-2	6.268235E-3	2.372845E-2	5.092042E-3	6.657501E-3	1.729859E-3	3.834296E-3
10/19/2017  17:44:40.577896	3.942925E+0	5.892449E-3	3.897834E-3	3.145550E-3	2.841330E-3	7.810629E-3	2.640908E-3	6.135019E-3
10/19/2017  17:44:40.578896	2.183789E+0	2.402288E-3	1.186435E-2	6.096239E-3	5.516130E-4	4.056970E-3	1.021252E-3	2.225815E-3
10/19/2017  17:44:40.579896	9.118688E-1	1.876470E-3	3.545158E-3	7.541131E-3	2.579534E-3	3.071911E-3	6.118456E-3	3.113122E-3
10/19/2017  17:44:40.580896	2.605296E+0	7.684973E-3	8.731998E-3	6.009794E-3	4.413179E-3	4.229070E-3	2.007010E-3	8.638156E-3
10/19/2017  17:44:40.581896	2.647452E+0	5.071967E-3	2.843653E-3	1.069159E-2	5.682448E-3	5.714650E-4	1.299718E-3	2.868712E-3
10/19/2017  17:44:40.582896	2.004198E+0	5.523459E-3	2.760088E-4	2.702345E-3	6.667690E-4	1.366165E-2	7.274624E-4	7.637613E-3
10/19/2017  17:44:40.583896	1.188363E-1	1.941999E-2	1.524015E-4	1.035723E-2	5.429420E-3	8.926262E-4	1.711081E-3	8.138966E-3
10/19/2017  17:44:40.584896	5.028063E-1	7.918041E-3	1.944249E-3	6.532339E-4	7.399667E-3	2.178755E-2	3.064982E-3	8.276701E-4
								
10/19/2017  17:44:40.585896	7.131177E-1	8.222525E-3	4.909547E-3	9.467427E-3	3.321471E-3	1.314743E-3	6.339076E-3	4.214780E-3
10/19/2017  17:44:40.586896	1.514029E+0	2.139149E-3	6.405836E-4	1.219605E-4	4.755795E-4	9.461828E-3	1.519254E-3	8.091042E-3
10/19/2017  17:44:40.587896	9.373766E-2	1.645568E-4	1.095457E-4	2.401753E-3	4.828397E-3	2.305430E-3	3.634154E-3	1.039500E-3
