Parameters: 	Upper Cutoff:  500	Lower Cutoff: 20	Sample Rate (Hz): 1000	Frames Per Second30	Display Window Size (S)400	MVC Window Size (s): 400	Seconds To Acquire MVC: 3	Display Channel: 0
waveform	[0]	[1]	[2]	[3]	[4]	[5]	[6]	[7]
t0	10/19/2017  17:43:56.846485	10/19/2017  17:43:56.846485	10/19/2017  17:43:56.846485	10/19/2017  17:43:56.846485	10/19/2017  17:43:56.846485	10/19/2017  17:43:56.846485	10/19/2017  17:43:56.846485	10/19/2017  17:43:56.846485
delta t	0.001000	0.001000	0.001000	0.001000	0.001000	0.001000	0.001000	0.001000

time	Y[0]	Y[1]	Y[2]	Y[3]	Y[4]	Y[5]	Y[6]	Y[7]
10/19/2017  17:43:56.844543	6.793102E-1	2.082484E-2	6.282096E-3	-1.013887E+1	2.732853E-2	2.709402E-2	7.714242E-2	2.401527E-2
10/19/2017  17:43:56.845543	-6.041116E-2	1.573716E-2	2.155331E-2	-1.013887E+1	1.712873E-2	1.946206E-2	8.222822E-2	2.401527E-2
10/19/2017  17:43:56.846543	-7.187886E-1	1.064948E-2	1.391770E-2	-1.014142E+1	2.222863E-2	1.183011E-2	6.951371E-2	2.910311E-2
10/19/2017  17:43:56.847543	-1.143302E+0	1.064948E-2	1.137250E-2	-1.013887E+1	2.987847E-2	2.709402E-2	7.205661E-2	2.147136E-2
10/19/2017  17:43:56.848543	-3.832449E-1	2.082484E-2	1.900811E-2	-1.013378E+1	2.477858E-2	2.709402E-2	7.714242E-2	2.401527E-2
10/19/2017  17:43:56.849543	-2.408930E-1	1.573716E-2	2.664372E-2	-1.013378E+1	1.967868E-2	1.946206E-2	7.205661E-2	3.164702E-2
10/19/2017  17:43:56.850543	2.268346E-1	5.561801E-3	2.155331E-2	-1.012869E+1	1.967868E-2	1.183011E-2	6.951371E-2	3.164702E-2
10/19/2017  17:43:56.851543	-3.374889E-1	1.319332E-2	2.155331E-2	-1.013887E+1	1.712873E-2	1.691808E-2	7.205661E-2	2.910311E-2
10/19/2017  17:43:56.852543	-4.518788E-1	1.573716E-2	2.664372E-2	-1.013887E+1	1.712873E-2	1.946206E-2	8.731403E-2	3.164702E-2
10/19/2017  17:43:56.853543	-1.748011E-1	1.064948E-2	1.391770E-2	-1.013123E+1	2.477858E-2	1.946206E-2	7.205661E-2	3.927877E-2
10/19/2017  17:43:56.854543	-1.448342E+0	2.082484E-2	1.900811E-2	-1.012869E+1	1.967868E-2	2.200605E-2	7.205661E-2	2.147136E-2
10/19/2017  17:43:56.855543	-3.639544E+0	1.319332E-2	2.664372E-2	-1.014396E+1	9.478889E-3	1.183011E-2	7.968532E-2	2.655919E-2
10/19/2017  17:43:56.856543	-2.846441E+0	1.319332E-2	1.900811E-2	-1.013887E+1	1.967868E-2	1.437409E-2	7.205661E-2	4.182269E-2
10/19/2017  17:43:56.857543	3.793544E-1	1.064948E-2	1.137250E-2	-1.013887E+1	2.732853E-2	3.218199E-2	6.951371E-2	3.164702E-2
10/19/2017  17:43:56.858543	2.730702E+0	2.591253E-2	1.900811E-2	-1.013632E+1	1.967868E-2	2.200605E-2	7.459952E-2	2.655919E-2
10/19/2017  17:43:56.859543	2.384991E+0	1.064948E-2	2.155331E-2	-1.013887E+1	2.222863E-2	2.200605E-2	7.714242E-2	3.164702E-2
10/19/2017  17:43:56.860543	1.637643E+0	1.064948E-2	1.646291E-2	-1.014905E+1	9.478889E-3	2.200605E-2	7.205661E-2	3.419094E-2
10/19/2017  17:43:56.861543	1.477497E+0	1.573716E-2	1.900811E-2	-1.013123E+1	2.222863E-2	1.946206E-2	7.459952E-2	2.655919E-2
10/19/2017  17:43:56.862543	1.080946E+0	1.319332E-2	2.155331E-2	-1.012614E+1	2.222863E-2	1.691808E-2	6.951371E-2	3.419094E-2
10/19/2017  17:43:56.863543	1.007228E+0	5.561801E-3	1.900811E-2	-1.012614E+1	1.967868E-2	1.183011E-2	7.205661E-2	3.927877E-2
10/19/2017  17:43:56.864543	1.080946E+0	1.064948E-2	1.137250E-2	-1.013887E+1	1.712873E-2	1.946206E-2	6.188501E-2	2.147136E-2
10/19/2017  17:43:56.865543	9.157160E-1	2.082484E-2	1.391770E-2	-1.013123E+1	2.477858E-2	2.963800E-2	7.968532E-2	2.147136E-2
10/19/2017  17:43:56.866543	4.708664E-1	1.573716E-2	2.409852E-2	-1.013887E+1	1.712873E-2	1.946206E-2	7.968532E-2	4.691052E-2
10/19/2017  17:43:56.867543	-2.482320E-2	1.573716E-2	1.900811E-2	-1.014142E+1	1.967868E-2	2.455003E-2	7.714242E-2	2.910311E-2
10/19/2017  17:43:56.868543	-7.111626E-1	2.082484E-2	1.391770E-2	-1.013632E+1	1.712873E-2	1.691808E-2	7.205661E-2	8.751773E-3
10/19/2017  17:43:56.869543	-4.366268E-1	1.319332E-2	1.900811E-2	-1.015924E+1	1.457878E-2	1.183011E-2	7.968532E-2	3.164702E-2
10/19/2017  17:43:56.870543	5.750883E-1	5.561801E-3	2.409852E-2	-1.013632E+1	2.477858E-2	1.946206E-2	7.205661E-2	3.673486E-2
10/19/2017  17:43:56.871543	-5.255967E-1	2.082484E-2	1.137250E-2	-1.013887E+1	2.477858E-2	2.455003E-2	7.968532E-2	3.164702E-2
10/19/2017  17:43:56.872543	-1.244982E+0	2.591253E-2	2.409852E-2	-1.014651E+1	9.478889E-3	2.709402E-2	7.459952E-2	2.147136E-2
10/19/2017  17:43:56.873543	-1.311074E+0	1.064948E-2	2.155331E-2	-1.014142E+1	1.457878E-2	2.200605E-2	7.205661E-2	3.927877E-2
10/19/2017  17:43:56.874543	-1.672038E+0	1.064948E-2	2.409852E-2	-1.013378E+1	1.457878E-2	1.691808E-2	7.205661E-2	3.419094E-2
10/19/2017  17:43:56.875543	9.945179E-1	2.082484E-2	8.827299E-3	-1.013632E+1	2.987847E-2	2.455003E-2	6.951371E-2	1.892744E-2
10/19/2017  17:43:56.876543	1.340230E+0	2.082484E-2	2.155331E-2	-1.014142E+1	2.477858E-2	3.472597E-2	7.205661E-2	2.655919E-2
								
10/19/2017  17:43:56.877543	8.292880E-1	5.561801E-3	2.155331E-2	-1.013123E+1	1.712873E-2	1.946206E-2	7.968532E-2	2.401527E-2
10/19/2017  17:43:56.878543	9.843499E-1	8.105642E-3	1.646291E-2	-1.013632E+1	1.967868E-2	-8.898203E-4	7.714242E-2	2.401527E-2
10/19/2017  17:43:56.879543	1.744407E+0	8.105642E-3	1.646291E-2	-1.014905E+1	2.732853E-2	2.709402E-2	7.205661E-2	2.910311E-2
10/19/2017  17:43:56.880543	2.133333E+0	1.064948E-2	2.155331E-2	-1.013632E+1	2.222863E-2	1.691808E-2	7.968532E-2	3.164702E-2
10/19/2017  17:43:56.881543	9.719269E-2	1.319332E-2	1.900811E-2	-1.013378E+1	1.457878E-2	1.946206E-2	8.477112E-2	3.164702E-2
10/19/2017  17:43:56.882543	-1.804222E+0	8.105642E-3	1.391770E-2	-1.013887E+1	1.967868E-2	1.946206E-2	7.205661E-2	3.164702E-2
10/19/2017  17:43:56.883543	-1.468678E+0	1.064948E-2	1.900811E-2	-1.014905E+1	1.202884E-2	2.709402E-2	6.188501E-2	3.164702E-2
10/19/2017  17:43:56.884543	-1.295822E+0	1.573716E-2	3.173413E-2	-1.012869E+1	1.457878E-2	2.200605E-2	8.222822E-2	3.164702E-2
10/19/2017  17:43:56.885543	-1.544651E-1	5.561801E-3	1.900811E-2	-1.012869E+1	2.222863E-2	1.437409E-2	7.205661E-2	2.147136E-2
10/19/2017  17:43:56.886543	5.674623E-1	1.064948E-2	1.391770E-2	-1.015669E+1	2.732853E-2	2.455003E-2	6.697081E-2	2.655919E-2
10/19/2017  17:43:56.887543	1.691025E+0	1.828100E-2	2.155331E-2	-1.013632E+1	1.457878E-2	2.200605E-2	8.222822E-2	2.147136E-2
10/19/2017  17:43:56.888543	1.241092E+0	1.064948E-2	1.900811E-2	-1.014142E+1	2.222863E-2	1.183011E-2	7.459952E-2	3.673486E-2
10/19/2017  17:43:56.889543	2.257891E+0	1.828100E-2	1.900811E-2	-1.013632E+1	2.987847E-2	1.946206E-2	6.697081E-2	2.910311E-2
10/19/2017  17:43:56.890543	6.767682E-1	1.573716E-2	2.664372E-2	-1.014396E+1	1.712873E-2	2.455003E-2	7.459952E-2	2.401527E-2
10/19/2017  17:43:56.891543	-2.645623E+0	-2.069720E-3	1.137250E-2	-1.013123E+1	1.712873E-2	1.691808E-2	7.968532E-2	3.419094E-2
10/19/2017  17:43:56.892543	-2.322789E+0	5.561801E-3	1.137250E-2	-1.013887E+1	2.987847E-2	1.691808E-2	7.714242E-2	3.164702E-2
10/19/2017  17:43:56.893543	-5.484747E-1	2.082484E-2	1.137250E-2	-1.014905E+1	1.712873E-2	3.218199E-2	7.205661E-2	2.655919E-2
10/19/2017  17:43:56.894543	1.251547E-1	1.064948E-2	2.155331E-2	-1.013378E+1	1.457878E-2	2.200605E-2	8.222822E-2	2.910311E-2
10/19/2017  17:43:56.895543	-9.571210E-3	5.561801E-3	1.900811E-2	-1.013632E+1	2.222863E-2	9.286120E-3	7.459952E-2	3.419094E-2
10/19/2017  17:43:56.896543	-6.221927E-1	4.741205E-4	1.391770E-2	-1.014142E+1	2.477858E-2	1.946206E-2	6.697081E-2	2.910311E-2
10/19/2017  17:43:56.897543	-1.811848E+0	1.573716E-2	2.155331E-2	-1.013887E+1	2.477858E-2	3.726996E-2	7.459952E-2	3.419094E-2
10/19/2017  17:43:56.898543	-1.466136E+0	2.845637E-2	1.900811E-2	-1.014142E+1	1.712873E-2	1.946206E-2	7.205661E-2	3.419094E-2
10/19/2017  17:43:56.899543	6.920202E-1	1.319332E-2	1.137250E-2	-1.013887E+1	2.987847E-2	9.286120E-3	6.697081E-2	3.164702E-2
10/19/2017  17:43:56.900543	1.154664E+0	4.741205E-4	1.900811E-2	-1.014651E+1	1.457878E-2	2.709402E-2	6.697081E-2	3.419094E-2
10/19/2017  17:43:56.901543	-2.256410E-1	1.319332E-2	2.409852E-2	-1.013123E+1	1.712873E-2	1.691808E-2	7.459952E-2	2.910311E-2
10/19/2017  17:43:56.902543	-2.287201E+0	1.828100E-2	2.409852E-2	-1.013887E+1	2.477858E-2	1.946206E-2	7.205661E-2	3.673486E-2
10/19/2017  17:43:56.903543	-1.944031E+0	2.082484E-2	1.137250E-2	-1.014651E+1	2.222863E-2	2.963800E-2	6.951371E-2	2.401527E-2
10/19/2017  17:43:56.904543	8.448270E-2	1.064948E-2	1.900811E-2	-1.012869E+1	1.202884E-2	1.946206E-2	8.222822E-2	3.164702E-2
10/19/2017  17:43:56.905543	6.691422E-1	3.017961E-3	1.137250E-2	-1.013887E+1	2.732853E-2	1.183011E-2	7.205661E-2	3.673486E-2
10/19/2017  17:43:56.906543	3.584814E+0	1.319332E-2	1.137250E-2	-1.013632E+1	2.732853E-2	2.963800E-2	6.951371E-2	2.910311E-2
10/19/2017  17:43:56.907543	3.228934E+0	1.828100E-2	1.900811E-2	-1.014651E+1	2.222863E-2	1.691808E-2	7.205661E-2	3.164702E-2
10/19/2017  17:43:56.908543	2.834924E+0	1.828100E-2	1.900811E-2	-1.013632E+1	1.712873E-2	1.946206E-2	7.205661E-2	2.147136E-2
10/19/2017  17:43:56.909543	2.956940E+0	8.105642E-3	1.137250E-2	-1.014396E+1	2.987847E-2	1.946206E-2	7.205661E-2	3.164702E-2
								
10/19/2017  17:43:56.910543	9.868919E-1	1.828100E-2	8.827299E-3	-1.014651E+1	2.222863E-2	2.963800E-2	7.205661E-2	2.655919E-2
10/19/2017  17:43:56.911543	-5.205127E-1	1.828100E-2	2.155331E-2	-1.013123E+1	1.712873E-2	2.709402E-2	9.239983E-2	2.910311E-2
10/19/2017  17:43:56.912543	-1.875110E-1	5.561801E-3	2.409852E-2	-1.012869E+1	2.477858E-2	1.946206E-2	7.459952E-2	2.910311E-2
10/19/2017  17:43:56.913543	7.177272E-2	1.064948E-2	1.391770E-2	-1.013378E+1	2.222863E-2	2.200605E-2	6.697081E-2	3.164702E-2
10/19/2017  17:43:56.914543	-4.874668E-1	1.319332E-2	6.282096E-3	-1.013632E+1	1.457878E-2	2.709402E-2	7.459952E-2	3.164702E-2
10/19/2017  17:43:56.915543	-1.519231E-1	1.064948E-2	2.155331E-2	-1.013378E+1	2.477858E-2	1.691808E-2	7.205661E-2	3.673486E-2
10/19/2017  17:43:56.916543	-1.945217E-3	1.319332E-2	1.137250E-2	-1.013887E+1	3.497837E-2	1.946206E-2	6.697081E-2	3.673486E-2
10/19/2017  17:43:56.917543	-3.654509E-1	8.105642E-3	1.900811E-2	-1.013887E+1	1.967868E-2	2.963800E-2	7.968532E-2	2.147136E-2
10/19/2017  17:43:56.918543	-7.670865E-1	5.561801E-3	2.155331E-2	-1.012614E+1	1.457878E-2	1.437409E-2	7.714242E-2	2.910311E-2
10/19/2017  17:43:56.919543	-1.229730E+0	2.336868E-2	1.137250E-2	-1.014651E+1	3.497837E-2	1.946206E-2	7.205661E-2	3.419094E-2
10/19/2017  17:43:56.920543	-1.870314E+0	1.828100E-2	1.900811E-2	-1.014142E+1	1.967868E-2	2.963800E-2	6.951371E-2	3.164702E-2
10/19/2017  17:43:56.921543	-1.791512E+0	1.064948E-2	1.900811E-2	-1.014142E+1	1.457878E-2	2.200605E-2	6.951371E-2	3.164702E-2
10/19/2017  17:43:56.922543	-6.374446E-1	1.573716E-2	6.282096E-3	-1.014142E+1	2.987847E-2	2.200605E-2	6.951371E-2	3.164702E-2
10/19/2017  17:43:56.923543	1.096198E+0	2.082484E-2	2.409852E-2	-1.013887E+1	2.477858E-2	2.963800E-2	8.731403E-2	2.910311E-2
10/19/2017  17:43:56.924543	3.138778E-3	5.561801E-3	2.155331E-2	-1.013123E+1	1.712873E-2	1.437409E-2	8.477112E-2	3.673486E-2
10/19/2017  17:43:56.925543	-6.272767E-1	8.105642E-3	1.137250E-2	-1.013887E+1	4.378993E-3	2.200605E-2	6.951371E-2	1.892744E-2
10/19/2017  17:43:56.926543	-1.323784E+0	2.082484E-2	1.646291E-2	-1.015160E+1	2.477858E-2	1.691808E-2	6.951371E-2	2.910311E-2
10/19/2017  17:43:56.927543	2.217506E-1	8.105642E-3	2.155331E-2	-1.014142E+1	2.222863E-2	1.691808E-2	7.714242E-2	3.164702E-2
10/19/2017  17:43:56.928543	2.700485E-1	1.828100E-2	1.646291E-2	-1.014142E+1	1.712873E-2	1.946206E-2	7.205661E-2	2.910311E-2
10/19/2017  17:43:56.929543	6.233862E-1	2.082484E-2	2.409852E-2	-1.013632E+1	2.477858E-2	1.946206E-2	7.459952E-2	3.164702E-2
10/19/2017  17:43:56.930543	6.106762E-1	8.105642E-3	1.900811E-2	-1.013123E+1	1.967868E-2	1.691808E-2	7.968532E-2	3.673486E-2
10/19/2017  17:43:56.931543	2.446286E-1	1.064948E-2	3.736893E-3	-1.013378E+1	2.477858E-2	3.472597E-2	7.205661E-2	2.655919E-2
10/19/2017  17:43:56.932543	-2.917330E-1	1.573716E-2	2.155331E-2	-1.014142E+1	1.712873E-2	1.946206E-2	7.714242E-2	3.164702E-2
10/19/2017  17:43:56.933543	-2.841070E-1	2.082484E-2	3.427933E-2	-1.014396E+1	1.712873E-2	1.437409E-2	7.205661E-2	3.419094E-2
10/19/2017  17:43:56.934543	-6.450706E-1	1.064948E-2	1.646291E-2	-1.014396E+1	1.712873E-2	2.709402E-2	7.459952E-2	2.147136E-2
10/19/2017  17:43:56.935543	6.208442E-1	1.064948E-2	2.155331E-2	-1.014142E+1	1.712873E-2	1.691808E-2	8.222822E-2	3.419094E-2
10/19/2017  17:43:56.936543	1.556299E+0	-7.157401E-3	1.137250E-2	-1.013632E+1	3.497837E-2	1.691808E-2	6.697081E-2	3.164702E-2
10/19/2017  17:43:56.937543	5.191643E-1	2.082484E-2	1.900811E-2	-1.014142E+1	2.222863E-2	3.981394E-2	7.459952E-2	3.164702E-2
10/19/2017  17:43:56.938543	2.321441E+0	2.845637E-2	1.646291E-2	-1.012869E+1	1.712873E-2	1.946206E-2	7.205661E-2	3.164702E-2
10/19/2017  17:43:56.939543	6.869362E-1	1.064948E-2	1.646291E-2	-1.014396E+1	2.222863E-2	9.286120E-3	7.714242E-2	2.147136E-2
10/19/2017  17:43:56.940543	-1.671751E-1	1.828100E-2	1.900811E-2	-1.015415E+1	2.477858E-2	2.455003E-2	7.205661E-2	2.655919E-2
10/19/2017  17:43:56.941543	-7.569185E-1	1.064948E-2	1.900811E-2	-1.013632E+1	1.202884E-2	1.946206E-2	8.222822E-2	3.927877E-2
10/19/2017  17:43:56.942543	-4.722148E-1	8.105642E-3	6.282096E-3	-1.013378E+1	2.732853E-2	1.183011E-2	7.205661E-2	2.910311E-2
								
10/19/2017  17:43:56.943543	-8.328914E-2	1.828100E-2	1.900811E-2	-1.014651E+1	2.222863E-2	2.963800E-2	7.205661E-2	2.401527E-2
10/19/2017  17:43:56.944543	1.454906E-1	1.064948E-2	1.900811E-2	-1.014142E+1	4.378993E-3	2.200605E-2	7.714242E-2	3.419094E-2
10/19/2017  17:43:56.945543	4.632404E-1	1.064948E-2	6.282096E-3	-1.014905E+1	2.732853E-2	1.437409E-2	6.951371E-2	3.164702E-2
10/19/2017  17:43:56.946543	-1.247524E+0	1.828100E-2	1.900811E-2	-1.014905E+1	1.457878E-2	2.455003E-2	7.714242E-2	2.401527E-2
10/19/2017  17:43:56.947543	-3.568368E+0	1.319332E-2	1.646291E-2	-1.012614E+1	1.967868E-2	1.946206E-2	7.205661E-2	3.673486E-2
10/19/2017  17:43:56.948543	-3.581078E+0	1.319332E-2	8.827299E-3	-1.014396E+1	2.987847E-2	1.691808E-2	6.951371E-2	1.892744E-2
10/19/2017  17:43:56.949543	-2.104177E+0	1.573716E-2	1.900811E-2	-1.015160E+1	1.967868E-2	1.437409E-2	6.442791E-2	3.164702E-2
10/19/2017  17:43:56.950543	3.717284E-1	-2.069720E-3	2.918892E-2	-1.013123E+1	1.967868E-2	2.200605E-2	7.459952E-2	2.910311E-2
10/19/2017  17:43:56.951543	2.191799E+0	1.319332E-2	1.391770E-2	-1.013887E+1	2.732853E-2	3.726996E-2	7.968532E-2	3.419094E-2
10/19/2017  17:43:56.952543	2.845092E+0	2.336868E-2	3.427933E-2	-1.013887E+1	1.967868E-2	1.946206E-2	7.968532E-2	3.164702E-2
10/19/2017  17:43:56.953543	6.945622E-1	4.741205E-4	1.900811E-2	-1.014142E+1	1.967868E-2	1.691808E-2	7.205661E-2	2.910311E-2
10/19/2017  17:43:56.954543	-4.162908E-1	1.319332E-2	1.391770E-2	-1.014396E+1	1.457878E-2	6.742135E-3	7.459952E-2	2.401527E-2
10/19/2017  17:43:56.955543	3.582272E+0	1.573716E-2	2.664372E-2	-1.013632E+1	1.712873E-2	2.200605E-2	7.968532E-2	3.164702E-2
10/19/2017  17:43:56.956543	3.711913E+0	8.105642E-3	1.900811E-2	-1.012869E+1	2.222863E-2	1.437409E-2	7.459952E-2	3.164702E-2
10/19/2017  17:43:56.957543	2.112997E+0	8.105642E-3	1.646291E-2	-1.014396E+1	1.967868E-2	2.963800E-2	7.205661E-2	2.401527E-2
10/19/2017  17:43:56.958543	-9.091514E-2	1.064948E-2	2.155331E-2	-1.013123E+1	1.457878E-2	4.198150E-3	7.205661E-2	2.147136E-2
10/19/2017  17:43:56.959543	-1.900530E-1	3.100021E-2	1.900811E-2	-1.014142E+1	1.712873E-2	1.437409E-2	6.951371E-2	3.419094E-2
10/19/2017  17:43:56.960543	-3.857869E-1	2.082484E-2	2.155331E-2	-1.014396E+1	1.967868E-2	2.455003E-2	6.951371E-2	2.401527E-2
10/19/2017  17:43:56.961543	2.093276E-2	1.319332E-2	2.409852E-2	-1.012869E+1	9.478889E-3	1.946206E-2	7.205661E-2	3.419094E-2
10/19/2017  17:43:56.962543	-6.577806E-1	1.319332E-2	8.827299E-3	-1.014396E+1	2.732853E-2	1.946206E-2	6.697081E-2	3.164702E-2
10/19/2017  17:43:56.963543	-5.764367E-1	1.828100E-2	1.900811E-2	-1.014651E+1	1.202884E-2	2.709402E-2	6.697081E-2	1.892744E-2
10/19/2017  17:43:56.964543	4.429044E-1	8.105642E-3	1.900811E-2	-1.012105E+1	1.457878E-2	1.691808E-2	8.222822E-2	3.927877E-2
10/19/2017  17:43:56.965543	1.302387E-1	1.064948E-2	1.137250E-2	-1.013887E+1	2.987847E-2	1.946206E-2	7.205661E-2	2.910311E-2
10/19/2017  17:43:56.966543	9.487619E-1	1.828100E-2	2.409852E-2	-1.015924E+1	2.477858E-2	2.963800E-2	6.951371E-2	2.401527E-2
10/19/2017  17:43:56.967543	1.431741E+0	5.561801E-3	2.664372E-2	-1.013123E+1	1.457878E-2	1.691808E-2	7.968532E-2	3.419094E-2
10/19/2017  17:43:56.968543	9.716399E-1	1.319332E-2	1.137250E-2	-1.013632E+1	2.732853E-2	1.437409E-2	7.459952E-2	2.910311E-2
10/19/2017  17:43:56.969543	-8.074715E-2	2.336868E-2	2.664372E-2	-1.014142E+1	2.477858E-2	3.218199E-2	7.459952E-2	2.910311E-2
10/19/2017  17:43:56.970543	-7.569185E-1	1.319332E-2	2.155331E-2	-1.013632E+1	1.967868E-2	3.218199E-2	6.442791E-2	2.910311E-2
10/19/2017  17:43:56.971543	2.751325E-1	4.741205E-4	2.409852E-2	-1.014396E+1	2.222863E-2	1.437409E-2	7.459952E-2	2.910311E-2
10/19/2017  17:43:56.972543	-4.874668E-1	1.573716E-2	1.900811E-2	-1.014396E+1	2.477858E-2	2.709402E-2	7.205661E-2	2.401527E-2
10/19/2017  17:43:56.973543	1.119076E+0	1.319332E-2	3.936974E-2	-1.012869E+1	1.712873E-2	2.709402E-2	7.968532E-2	3.927877E-2
10/19/2017  17:43:56.974543	9.665559E-1	8.105642E-3	1.900811E-2	-1.012614E+1	2.732853E-2	1.183011E-2	5.425630E-2	3.419094E-2
10/19/2017  17:43:56.975543	-2.230990E-1	2.082484E-2	1.191689E-3	-1.013887E+1	2.222863E-2	1.946206E-2	7.205661E-2	2.401527E-2
								
10/19/2017  17:43:56.976543	-1.041622E+0	1.064948E-2	2.409852E-2	-1.014651E+1	2.477858E-2	1.946206E-2	7.459952E-2	2.910311E-2
10/19/2017  17:43:56.977543	-2.027630E-1	1.319332E-2	1.900811E-2	-1.013632E+1	2.222863E-2	3.726996E-2	7.459952E-2	3.164702E-2
10/19/2017  17:43:56.978543	-2.942750E-1	3.354405E-2	1.646291E-2	-1.013887E+1	2.477858E-2	2.709402E-2	7.459952E-2	2.655919E-2
10/19/2017  17:43:56.979543	3.110075E-2	1.319332E-2	2.918892E-2	-1.013887E+1	1.457878E-2	2.200605E-2	7.714242E-2	3.673486E-2
10/19/2017  17:43:56.980543	1.073607E-1	3.017961E-3	1.646291E-2	-1.015160E+1	2.222863E-2	1.437409E-2	6.951371E-2	3.164702E-2
10/19/2017  17:43:56.981543	1.284306E+0	1.573716E-2	8.827299E-3	-1.013632E+1	1.712873E-2	1.946206E-2	7.205661E-2	2.910311E-2
10/19/2017  17:43:56.982543	1.202962E+0	2.082484E-2	1.900811E-2	-1.012614E+1	3.242842E-2	1.946206E-2	7.714242E-2	2.401527E-2
10/19/2017  17:43:56.983543	3.259725E-1	1.828100E-2	1.391770E-2	-1.013632E+1	1.712873E-2	2.200605E-2	7.714242E-2	3.164702E-2
10/19/2017  17:43:56.984543	-5.942307E-1	8.105642E-3	1.646291E-2	-1.013378E+1	2.222863E-2	1.183011E-2	6.188501E-2	2.655919E-2
10/19/2017  17:43:56.985543	-6.933686E-1	2.082484E-2	1.191689E-3	-1.014142E+1	2.987847E-2	2.709402E-2	6.697081E-2	2.401527E-2
10/19/2017  17:43:56.986543	-3.756189E-1	1.828100E-2	1.646291E-2	-1.013632E+1	2.222863E-2	2.455003E-2	7.459952E-2	4.436661E-2
10/19/2017  17:43:56.987543	2.903845E-1	8.105642E-3	2.918892E-2	-1.011341E+1	1.967868E-2	1.946206E-2	7.714242E-2	3.419094E-2
10/19/2017  17:43:56.988543	7.177272E-2	1.573716E-2	1.391770E-2	-1.013378E+1	2.477858E-2	2.200605E-2	6.951371E-2	1.892744E-2
10/19/2017  17:43:56.989543	8.448270E-2	1.828100E-2	2.155331E-2	-1.014396E+1	1.967868E-2	1.946206E-2	7.968532E-2	2.655919E-2
10/19/2017  17:43:56.990543	8.089520E-1	1.064948E-2	2.664372E-2	-1.013378E+1	1.457878E-2	1.183011E-2	7.968532E-2	3.927877E-2
10/19/2017  17:43:56.991543	7.431471E-2	8.105642E-3	1.137250E-2	-1.013378E+1	2.477858E-2	2.200605E-2	7.459952E-2	2.910311E-2
10/19/2017  17:43:56.992543	-2.744761E+0	1.573716E-2	2.409852E-2	-1.013887E+1	2.732853E-2	1.691808E-2	7.205661E-2	2.910311E-2
10/19/2017  17:43:56.993543	-2.556653E+0	5.561801E-3	1.900811E-2	-1.013632E+1	2.222863E-2	1.691808E-2	6.188501E-2	3.673486E-2
10/19/2017  17:43:56.994543	-1.529686E+0	5.561801E-3	6.282096E-3	-1.013887E+1	1.712873E-2	1.691808E-2	6.697081E-2	2.655919E-2
10/19/2017  17:43:56.995543	-1.860146E+0	2.336868E-2	1.646291E-2	-1.013632E+1	2.477858E-2	2.709402E-2	7.714242E-2	3.164702E-2
10/19/2017  17:43:56.996543	-7.518345E-1	1.573716E-2	1.900811E-2	-1.013378E+1	2.732853E-2	2.963800E-2	7.205661E-2	3.673486E-2
10/19/2017  17:43:56.997543	2.024027E+0	1.573716E-2	1.137250E-2	-1.013632E+1	2.477858E-2	1.946206E-2	6.697081E-2	2.655919E-2
10/19/2017  17:43:56.998543	3.371286E+0	2.082484E-2	1.137250E-2	-1.014396E+1	2.477858E-2	1.946206E-2	7.459952E-2	1.892744E-2
10/19/2017  17:43:56.999543	2.090119E+0	1.064948E-2	1.646291E-2	-1.013887E+1	2.477858E-2	1.946206E-2	7.459952E-2	3.927877E-2
10/19/2017  17:43:57.000543	6.005082E-1	1.064948E-2	1.646291E-2	-1.013378E+1	2.732853E-2	2.455003E-2	6.951371E-2	3.164702E-2
10/19/2017  17:43:57.001543	7.177272E-2	1.828100E-2	1.646291E-2	-1.013123E+1	2.477858E-2	2.709402E-2	7.968532E-2	2.147136E-2
10/19/2017  17:43:57.002543	6.132182E-1	1.064948E-2	3.173413E-2	-1.013887E+1	1.457878E-2	1.691808E-2	7.968532E-2	3.673486E-2
10/19/2017  17:43:57.003543	3.158045E-1	1.064948E-2	1.646291E-2	-1.013632E+1	1.457878E-2	1.946206E-2	6.442791E-2	2.655919E-2
10/19/2017  17:43:57.004543	5.064543E-1	2.082484E-2	3.173413E-2	-1.014651E+1	1.712873E-2	2.709402E-2	8.222822E-2	2.401527E-2
10/19/2017  17:43:57.005543	1.749491E+0	8.105642E-3	1.646291E-2	-1.012614E+1	2.222863E-2	1.437409E-2	7.205661E-2	4.945444E-2
10/19/2017  17:43:57.006543	1.988726E-1	1.064948E-2	1.391770E-2	-1.014651E+1	2.732853E-2	1.946206E-2	6.442791E-2	2.910311E-2
10/19/2017  17:43:57.007543	-7.213306E-1	1.573716E-2	2.155331E-2	-1.013887E+1	2.222863E-2	2.963800E-2	7.714242E-2	4.182269E-2
10/19/2017  17:43:57.008543	-1.112798E+0	1.319332E-2	1.391770E-2	-1.013887E+1	1.967868E-2	1.183011E-2	7.459952E-2	2.910311E-2
								
10/19/2017  17:43:57.009543	-9.170644E-1	2.082484E-2	2.918892E-2	-1.013887E+1	2.222863E-2	1.946206E-2	7.459952E-2	2.910311E-2
10/19/2017  17:43:57.010543	-1.283112E+0	1.828100E-2	1.900811E-2	-1.014905E+1	2.222863E-2	3.472597E-2	7.205661E-2	2.401527E-2
10/19/2017  17:43:57.011543	-7.111626E-1	1.828100E-2	1.391770E-2	-1.013632E+1	1.457878E-2	1.946206E-2	8.731403E-2	3.927877E-2
10/19/2017  17:43:57.012543	-4.569628E-1	4.741205E-4	1.137250E-2	-1.013123E+1	2.732853E-2	1.691808E-2	6.697081E-2	3.164702E-2
10/19/2017  17:43:57.013543	3.038284E+0	1.828100E-2	1.646291E-2	-1.014142E+1	2.477858E-2	2.709402E-2	7.459952E-2	2.401527E-2
10/19/2017  17:43:57.014543	1.919805E+0	1.828100E-2	2.664372E-2	-1.012869E+1	1.712873E-2	1.691808E-2	7.968532E-2	3.164702E-2
10/19/2017  17:43:57.015543	3.818964E-1	1.064948E-2	1.191689E-3	-1.013123E+1	2.477858E-2	1.183011E-2	7.205661E-2	2.910311E-2
10/19/2017  17:43:57.016543	5.649203E-1	1.064948E-2	1.900811E-2	-1.014651E+1	1.967868E-2	2.709402E-2	8.222822E-2	2.655919E-2
10/19/2017  17:43:57.017543	4.784923E-1	5.561801E-3	2.155331E-2	-1.013378E+1	1.457878E-2	3.472597E-2	8.222822E-2	3.673486E-2
10/19/2017  17:43:57.018543	2.903845E-1	3.100021E-2	6.282096E-3	-1.013887E+1	3.497837E-2	1.946206E-2	7.205661E-2	2.655919E-2
10/19/2017  17:43:57.019543	-5.230547E-1	1.828100E-2	1.646291E-2	-1.014651E+1	1.712873E-2	2.963800E-2	8.222822E-2	2.655919E-2
10/19/2017  17:43:57.020543	-1.628824E+0	-7.157401E-3	1.646291E-2	-1.013887E+1	1.202884E-2	1.437409E-2	6.951371E-2	3.419094E-2
10/19/2017  17:43:57.021543	-9.091514E-2	1.319332E-2	8.827299E-3	-1.014142E+1	2.732853E-2	1.946206E-2	6.951371E-2	2.910311E-2
10/19/2017  17:43:57.022543	3.412245E-1	1.573716E-2	2.155331E-2	-1.013632E+1	1.712873E-2	1.946206E-2	7.205661E-2	3.419094E-2
10/19/2017  17:43:57.023543	-1.651702E+0	1.064948E-2	2.155331E-2	-1.013123E+1	2.477858E-2	1.946206E-2	7.459952E-2	2.910311E-2
10/19/2017  17:43:57.024543	-3.014212E+0	1.319332E-2	1.137250E-2	-1.014142E+1	1.457878E-2	2.963800E-2	7.205661E-2	2.401527E-2
10/19/2017  17:43:57.025543	-8.026745E-1	1.828100E-2	1.900811E-2	-1.015924E+1	1.202884E-2	2.709402E-2	8.222822E-2	2.401527E-2
10/19/2017  17:43:57.026543	-1.061958E+0	1.064948E-2	2.155331E-2	-1.013887E+1	2.222863E-2	1.691808E-2	7.459952E-2	5.199836E-2
10/19/2017  17:43:57.027543	1.324978E+0	1.064948E-2	1.137250E-2	-1.011596E+1	2.477858E-2	2.709402E-2	7.205661E-2	2.401527E-2
10/19/2017  17:43:57.028543	2.176547E+0	2.336868E-2	1.646291E-2	-1.014651E+1	1.457878E-2	2.709402E-2	7.968532E-2	2.655919E-2
10/19/2017  17:43:57.029543	2.913726E+0	5.561801E-3	2.409852E-2	-1.013887E+1	1.457878E-2	6.742135E-3	8.477112E-2	3.419094E-2
10/19/2017  17:43:57.030543	-6.041116E-2	5.561801E-3	6.282096E-3	-1.013632E+1	2.477858E-2	1.437409E-2	6.951371E-2	3.164702E-2
10/19/2017  17:43:57.031543	6.615162E-1	1.064948E-2	1.646291E-2	-1.014142E+1	1.967868E-2	2.963800E-2	7.968532E-2	2.910311E-2
10/19/2017  17:43:57.032543	8.448270E-2	1.064948E-2	8.827299E-3	-1.013887E+1	2.477858E-2	2.455003E-2	7.714242E-2	3.673486E-2
10/19/2017  17:43:57.033543	-1.925950E-1	5.561801E-3	1.137250E-2	-1.014142E+1	2.987847E-2	1.946206E-2	5.934210E-2	3.164702E-2
10/19/2017  17:43:57.034543	-9.374004E-1	1.573716E-2	1.191689E-3	-1.015160E+1	1.967868E-2	1.946206E-2	7.459952E-2	1.892744E-2
10/19/2017  17:43:57.035543	-1.999955E+0	1.319332E-2	2.664372E-2	-1.014905E+1	1.712873E-2	1.437409E-2	7.968532E-2	3.673486E-2
10/19/2017  17:43:57.036543	-2.597325E+0	5.561801E-3	1.137250E-2	-1.013887E+1	3.752832E-2	3.472597E-2	6.951371E-2	3.419094E-2
10/19/2017  17:43:57.037543	-1.692374E+0	2.336868E-2	1.646291E-2	-1.013887E+1	1.967868E-2	2.963800E-2	7.459952E-2	2.401527E-2
10/19/2017  17:43:57.038543	-2.739677E+0	1.319332E-2	1.646291E-2	-1.014396E+1	2.222863E-2	1.946206E-2	7.459952E-2	2.655919E-2
10/19/2017  17:43:57.039543	-2.304995E+0	1.064948E-2	1.646291E-2	-1.014651E+1	2.732853E-2	2.709402E-2	6.951371E-2	2.910311E-2
10/19/2017  17:43:57.040543	5.010874E+0	1.828100E-2	2.664372E-2	-1.013632E+1	1.967868E-2	2.963800E-2	7.714242E-2	2.910311E-2
10/19/2017  17:43:57.041543	4.947324E+0	1.319332E-2	1.646291E-2	-1.011341E+1	1.457878E-2	1.946206E-2	7.714242E-2	3.164702E-2
								
10/19/2017  17:43:57.042543	-1.189058E+0	1.319332E-2	1.391770E-2	-1.013887E+1	2.987847E-2	2.455003E-2	6.951371E-2	2.655919E-2
10/19/2017  17:43:57.043543	-2.922701E+0	1.064948E-2	2.664372E-2	-1.014396E+1	4.378993E-3	2.455003E-2	7.205661E-2	2.910311E-2
10/19/2017  17:43:57.044543	-1.621198E+0	8.105642E-3	1.137250E-2	-1.014396E+1	2.477858E-2	2.455003E-2	7.459952E-2	3.164702E-2
10/19/2017  17:43:57.045543	-3.062510E+0	1.319332E-2	1.646291E-2	-1.014651E+1	2.222863E-2	2.200605E-2	8.222822E-2	3.673486E-2
10/19/2017  17:43:57.046543	2.311273E+0	1.064948E-2	3.682453E-2	-1.012105E+1	1.712873E-2	2.455003E-2	8.222822E-2	3.164702E-2
10/19/2017  17:43:57.047543	4.116091E+0	5.561801E-3	1.137250E-2	-1.013123E+1	2.222863E-2	1.437409E-2	7.968532E-2	3.673486E-2
10/19/2017  17:43:57.048543	1.683399E+0	2.336868E-2	2.155331E-2	-1.013632E+1	2.222863E-2	2.200605E-2	7.968532E-2	2.401527E-2
10/19/2017  17:43:57.049543	-5.840627E-1	1.064948E-2	2.918892E-2	-1.013632E+1	1.457878E-2	1.437409E-2	7.968532E-2	3.673486E-2
10/19/2017  17:43:57.050543	-1.748298E+0	1.064948E-2	1.137250E-2	-1.014651E+1	2.477858E-2	2.963800E-2	6.697081E-2	2.910311E-2
10/19/2017  17:43:57.051543	-9.501104E-1	2.591253E-2	1.137250E-2	-1.014905E+1	2.477858E-2	2.200605E-2	7.205661E-2	2.910311E-2
10/19/2017  17:43:57.052543	3.463085E-1	3.017961E-3	2.409852E-2	-1.013378E+1	1.202884E-2	1.437409E-2	7.968532E-2	3.927877E-2
10/19/2017  17:43:57.053543	2.446286E-1	1.064948E-2	1.137250E-2	-1.013632E+1	1.967868E-2	1.691808E-2	6.697081E-2	2.910311E-2
10/19/2017  17:43:57.054543	-6.549516E-2	1.828100E-2	1.646291E-2	-1.013378E+1	2.222863E-2	2.455003E-2	8.222822E-2	3.164702E-2
10/19/2017  17:43:57.055543	-9.806143E-1	8.105642E-3	1.391770E-2	-1.013378E+1	2.987847E-2	2.455003E-2	7.459952E-2	3.927877E-2
10/19/2017  17:43:57.056543	-2.182979E+0	1.573716E-2	1.137250E-2	-1.014396E+1	2.477858E-2	2.963800E-2	6.951371E-2	2.147136E-2
10/19/2017  17:43:57.057543	-2.050795E+0	2.082484E-2	2.664372E-2	-1.014651E+1	1.457878E-2	1.691808E-2	7.205661E-2	3.164702E-2
10/19/2017  17:43:57.058543	-8.382625E-1	2.591253E-2	1.900811E-2	-1.013378E+1	2.477858E-2	1.183011E-2	7.205661E-2	3.673486E-2
10/19/2017  17:43:57.059543	1.973187E+0	1.064948E-2	1.646291E-2	-1.013378E+1	2.222863E-2	1.946206E-2	7.205661E-2	3.164702E-2
10/19/2017  17:43:57.060543	4.042373E+0	4.741205E-4	1.646291E-2	-1.013378E+1	4.378993E-3	1.691808E-2	8.222822E-2	3.673486E-2
10/19/2017  17:43:57.061543	3.422126E+0	5.561801E-3	1.900811E-2	-1.013378E+1	2.732853E-2	9.286120E-3	7.205661E-2	3.673486E-2
10/19/2017  17:43:57.062543	2.092661E+0	2.082484E-2	1.391770E-2	-1.014142E+1	2.222863E-2	2.963800E-2	6.442791E-2	3.164702E-2
10/19/2017  17:43:57.063543	-9.068964E-1	1.064948E-2	3.173413E-2	-1.013632E+1	1.457878E-2	2.455003E-2	7.968532E-2	3.673486E-2
10/19/2017  17:43:57.064543	-1.516976E+0	1.064948E-2	1.137250E-2	-1.013632E+1	1.457878E-2	1.183011E-2	6.697081E-2	4.182269E-2
10/19/2017  17:43:57.065543	-1.745756E+0	1.828100E-2	1.137250E-2	-1.014905E+1	2.222863E-2	1.946206E-2	7.714242E-2	2.401527E-2
10/19/2017  17:43:57.066543	-1.689832E+0	1.573716E-2	2.664372E-2	-1.014651E+1	1.712873E-2	1.183011E-2	8.222822E-2	4.182269E-2
10/19/2017  17:43:57.067543	-8.837314E-2	1.064948E-2	1.900811E-2	-1.011596E+1	2.732853E-2	1.437409E-2	6.697081E-2	3.927877E-2
10/19/2017  17:43:57.068543	8.419980E-1	2.082484E-2	1.391770E-2	-1.014142E+1	2.222863E-2	2.455003E-2	7.459952E-2	2.655919E-2
10/19/2017  17:43:57.069543	-6.549516E-2	1.319332E-2	1.900811E-2	-1.014142E+1	1.967868E-2	1.183011E-2	7.205661E-2	3.164702E-2
10/19/2017  17:43:57.070543	1.253802E+0	-2.069720E-3	1.646291E-2	-1.012869E+1	1.712873E-2	1.691808E-2	7.205661E-2	3.673486E-2
10/19/2017  17:43:57.071543	-5.278517E-2	1.573716E-2	1.137250E-2	-1.013887E+1	2.732853E-2	1.946206E-2	7.205661E-2	3.164702E-2
10/19/2017  17:43:57.072543	-3.781609E-1	2.082484E-2	3.173413E-2	-1.014905E+1	2.477858E-2	1.437409E-2	7.459952E-2	3.164702E-2
10/19/2017  17:43:57.073543	-1.188771E-1	8.105642E-3	1.646291E-2	-1.014396E+1	1.967868E-2	1.946206E-2	6.697081E-2	2.655919E-2
10/19/2017  17:43:57.074543	-2.284659E+0	1.064948E-2	3.736893E-3	-1.013632E+1	1.712873E-2	2.455003E-2	6.951371E-2	2.910311E-2
								
10/19/2017  17:43:57.075543	5.652073E-2	2.845637E-2	1.900811E-2	-1.015415E+1	2.477858E-2	2.455003E-2	7.714242E-2	2.655919E-2
10/19/2017  17:43:57.076543	-4.696728E-1	1.064948E-2	2.664372E-2	-1.013887E+1	1.457878E-2	3.218199E-2	8.222822E-2	3.927877E-2
10/19/2017  17:43:57.077543	1.413948E+0	1.573716E-2	1.900811E-2	-1.012105E+1	2.222863E-2	1.183011E-2	6.697081E-2	3.673486E-2
10/19/2017  17:43:57.078543	5.013416E+0	1.828100E-2	1.137250E-2	-1.013887E+1	2.987847E-2	1.437409E-2	6.951371E-2	1.383961E-2
10/19/2017  17:43:57.079543	2.946772E+0	1.064948E-2	2.664372E-2	-1.014142E+1	1.202884E-2	2.200605E-2	8.222822E-2	4.182269E-2
10/19/2017  17:43:57.080543	-1.046706E+0	8.105642E-3	1.137250E-2	-1.013378E+1	2.222863E-2	1.691808E-2	7.459952E-2	4.182269E-2
10/19/2017  17:43:57.081543	-1.036251E-1	1.319332E-2	1.137250E-2	-1.013887E+1	3.752832E-2	2.963800E-2	7.205661E-2	2.147136E-2
10/19/2017  17:43:57.082543	-1.847436E+0	2.082484E-2	2.155331E-2	-1.014905E+1	1.457878E-2	2.455003E-2	7.968532E-2	2.910311E-2
10/19/2017  17:43:57.083543	-3.077762E+0	1.064948E-2	1.900811E-2	-1.013632E+1	1.457878E-2	1.437409E-2	6.697081E-2	4.182269E-2
10/19/2017  17:43:57.084543	-1.956741E+0	1.319332E-2	6.282096E-3	-1.014142E+1	2.732853E-2	2.200605E-2	6.951371E-2	3.164702E-2
10/19/2017  17:43:57.085543	-6.984526E-1	1.573716E-2	2.409852E-2	-1.013887E+1	2.477858E-2	1.946206E-2	7.459952E-2	3.673486E-2
10/19/2017  17:43:57.086543	-1.458510E+0	8.105642E-3	2.155331E-2	-1.013123E+1	1.967868E-2	1.437409E-2	6.951371E-2	3.927877E-2
10/19/2017  17:43:57.087543	-9.170644E-1	8.105642E-3	6.282096E-3	-1.013632E+1	2.477858E-2	1.946206E-2	6.951371E-2	2.147136E-2
10/19/2017  17:43:57.088543	1.581719E+0	1.828100E-2	2.918892E-2	-1.015160E+1	1.712873E-2	1.183011E-2	8.222822E-2	2.910311E-2
10/19/2017  17:43:57.089543	1.889301E+0	1.573716E-2	2.664372E-2	-1.012869E+1	1.202884E-2	1.437409E-2	7.968532E-2	3.673486E-2
10/19/2017  17:43:57.090543	1.716445E+0	5.561801E-3	1.137250E-2	-1.013123E+1	2.987847E-2	2.200605E-2	6.188501E-2	3.164702E-2
10/19/2017  17:43:57.091543	1.101282E+0	2.082484E-2	8.827299E-3	-1.013887E+1	2.222863E-2	2.709402E-2	7.459952E-2	3.164702E-2
10/19/2017  17:43:57.092543	-1.455968E+0	1.064948E-2	1.900811E-2	-1.013887E+1	2.222863E-2	1.946206E-2	7.968532E-2	3.673486E-2
10/19/2017  17:43:57.093543	-2.940495E+0	1.828100E-2	2.664372E-2	-1.014396E+1	2.222863E-2	2.963800E-2	6.697081E-2	3.164702E-2
10/19/2017  17:43:57.094543	1.337688E+0	2.845637E-2	2.155331E-2	-1.014142E+1	2.732853E-2	2.963800E-2	7.714242E-2	2.401527E-2
10/19/2017  17:43:57.095543	4.566025E+0	1.064948E-2	1.900811E-2	-1.013378E+1	2.477858E-2	3.218199E-2	7.205661E-2	3.419094E-2
10/19/2017  17:43:57.096543	5.267903E-1	4.741205E-4	1.137250E-2	-1.013887E+1	1.967868E-2	1.946206E-2	6.697081E-2	3.164702E-2
10/19/2017  17:43:57.097543	-7.747125E-1	1.828100E-2	2.664372E-2	-1.013887E+1	2.222863E-2	1.946206E-2	7.968532E-2	1.638352E-2
10/19/2017  17:43:57.098543	3.971484E-1	1.828100E-2	1.900811E-2	-1.012614E+1	2.477858E-2	1.691808E-2	7.714242E-2	3.164702E-2
10/19/2017  17:43:57.099543	1.202962E+0	1.064948E-2	1.391770E-2	-1.013887E+1	3.242842E-2	1.946206E-2	6.442791E-2	1.638352E-2
10/19/2017  17:43:57.100543	1.988726E-1	1.828100E-2	1.900811E-2	-1.013632E+1	1.457878E-2	2.963800E-2	7.714242E-2	2.147136E-2
10/19/2017  17:43:57.101543	1.709106E-1	1.573716E-2	1.646291E-2	-1.014651E+1	2.477858E-2	1.691808E-2	7.714242E-2	3.673486E-2
10/19/2017  17:43:57.102543	6.411802E-1	1.064948E-2	1.137250E-2	-1.013887E+1	3.497837E-2	2.200605E-2	6.951371E-2	3.164702E-2
10/19/2017  17:43:57.103543	7.250661E-1	1.064948E-2	2.155331E-2	-1.013378E+1	2.222863E-2	2.963800E-2	8.222822E-2	2.655919E-2
10/19/2017  17:43:57.104543	1.912466E-1	5.561801E-3	1.646291E-2	-1.012614E+1	1.967868E-2	2.455003E-2	7.205661E-2	1.892744E-2
10/19/2017  17:43:57.105543	-6.603226E-1	1.064948E-2	1.137250E-2	-1.013378E+1	2.222863E-2	1.946206E-2	7.459952E-2	2.147136E-2
10/19/2017  17:43:57.106543	-1.359372E+0	1.064948E-2	2.664372E-2	-1.014142E+1	1.457878E-2	2.455003E-2	7.968532E-2	4.945444E-2
10/19/2017  17:43:57.107543	4.635274E-2	5.561801E-3	1.900811E-2	-1.013887E+1	2.222863E-2	1.946206E-2	7.968532E-2	2.910311E-2
								
10/19/2017  17:43:57.108543	2.415495E+0	2.082484E-2	1.391770E-2	-1.014905E+1	2.222863E-2	2.455003E-2	7.459952E-2	2.401527E-2
10/19/2017  17:43:57.109543	2.552762E+0	1.064948E-2	2.664372E-2	-1.013378E+1	1.457878E-2	1.946206E-2	6.951371E-2	3.927877E-2
10/19/2017  17:43:57.110543	-6.145667E-1	4.741205E-4	1.137250E-2	-1.013632E+1	1.457878E-2	2.455003E-2	7.459952E-2	2.910311E-2
10/19/2017  17:43:57.111543	-2.988793E+0	2.845637E-2	1.900811E-2	-1.014396E+1	2.222863E-2	2.709402E-2	8.477112E-2	2.147136E-2
10/19/2017  17:43:57.112543	-3.426016E+0	1.319332E-2	3.427933E-2	-1.013887E+1	2.222863E-2	2.709402E-2	7.968532E-2	3.164702E-2
10/19/2017  17:43:57.113543	-2.243987E+0	8.105642E-3	1.137250E-2	-1.012869E+1	2.477858E-2	1.691808E-2	6.951371E-2	3.164702E-2
10/19/2017  17:43:57.114543	4.995622E+0	2.082484E-2	1.137250E-2	-1.013632E+1	1.457878E-2	2.200605E-2	7.459952E-2	2.147136E-2
10/19/2017  17:43:57.115543	5.000706E+0	2.082484E-2	2.664372E-2	-1.013378E+1	1.967868E-2	1.946206E-2	7.968532E-2	3.164702E-2
10/19/2017  17:43:57.116543	7.759061E-1	5.561801E-3	1.900811E-2	-1.012359E+1	2.477858E-2	6.742135E-3	6.951371E-2	3.419094E-2
10/19/2017  17:43:57.117543	-4.933421E+0	1.064948E-2	1.646291E-2	-1.014396E+1	2.477858E-2	2.455003E-2	7.205661E-2	3.164702E-2
10/19/2017  17:43:57.118543	-4.953757E+0	2.082484E-2	1.900811E-2	-1.015160E+1	1.712873E-2	9.286120E-3	7.205661E-2	2.147136E-2
10/19/2017  17:43:57.119543	-4.920711E+0	4.741205E-4	1.900811E-2	-1.015669E+1	2.477858E-2	1.946206E-2	7.205661E-2	3.927877E-2
10/19/2017  17:43:57.120543	-2.152475E+0	1.064948E-2	1.391770E-2	-1.013887E+1	2.222863E-2	2.200605E-2	7.714242E-2	2.910311E-2
10/19/2017  17:43:57.121543	-7.467505E-1	1.319332E-2	1.391770E-2	-1.013887E+1	3.242842E-2	2.455003E-2	7.459952E-2	2.401527E-2
10/19/2017  17:43:57.122543	1.022767E-1	8.105642E-3	1.900811E-2	-1.013887E+1	1.712873E-2	1.946206E-2	7.714242E-2	3.164702E-2
10/19/2017  17:43:57.123543	5.000706E+0	3.017961E-3	1.646291E-2	-1.012614E+1	1.457878E-2	1.946206E-2	7.205661E-2	3.673486E-2
10/19/2017  17:43:57.124543	5.003248E+0	1.064948E-2	1.391770E-2	-1.012105E+1	2.477858E-2	1.946206E-2	6.951371E-2	2.910311E-2
10/19/2017  17:43:57.125543	1.485123E+0	2.082484E-2	1.391770E-2	-1.013632E+1	2.222863E-2	2.709402E-2	7.205661E-2	2.147136E-2
10/19/2017  17:43:57.126543	-1.356830E+0	1.064948E-2	2.664372E-2	-1.014142E+1	1.457878E-2	1.691808E-2	7.968532E-2	3.927877E-2
10/19/2017  17:43:57.127543	-4.696728E-1	5.561801E-3	1.137250E-2	-1.013887E+1	2.477858E-2	1.183011E-2	6.951371E-2	1.892744E-2
10/19/2017  17:43:57.128543	2.675065E-1	2.082484E-2	1.900811E-2	-1.015415E+1	2.222863E-2	1.946206E-2	6.951371E-2	2.401527E-2
10/19/2017  17:43:57.129543	-1.305990E+0	1.319332E-2	3.173413E-2	-1.013632E+1	1.457878E-2	2.455003E-2	7.968532E-2	3.673486E-2
10/19/2017  17:43:57.130543	1.220756E+0	1.064948E-2	1.137250E-2	-1.012869E+1	2.732853E-2	1.437409E-2	7.205661E-2	2.910311E-2
10/19/2017  17:43:57.131543	2.801878E+0	1.828100E-2	6.282096E-3	-1.014142E+1	1.967868E-2	2.455003E-2	7.459952E-2	2.147136E-2
10/19/2017  17:43:57.132543	4.683244E-1	1.319332E-2	2.155331E-2	-1.012869E+1	1.712873E-2	2.455003E-2	7.714242E-2	3.673486E-2
10/19/2017  17:43:57.133543	-1.453426E+0	1.064948E-2	2.918892E-2	-1.013123E+1	3.497837E-2	2.200605E-2	6.951371E-2	3.673486E-2
10/19/2017  17:43:57.134543	-2.066047E+0	1.573716E-2	1.137250E-2	-1.014142E+1	3.242842E-2	2.963800E-2	7.205661E-2	2.147136E-2
10/19/2017  17:43:57.135543	1.274138E+0	1.319332E-2	2.155331E-2	-1.014142E+1	2.732853E-2	1.183011E-2	8.477112E-2	3.164702E-2
10/19/2017  17:43:57.136543	1.919805E+0	-4.613560E-3	1.900811E-2	-1.013632E+1	1.457878E-2	1.691808E-2	7.205661E-2	3.164702E-2
10/19/2017  17:43:57.137543	-1.570071E-1	1.319332E-2	1.391770E-2	-1.013887E+1	2.222863E-2	9.286120E-3	7.205661E-2	2.401527E-2
10/19/2017  17:43:57.138543	-8.814764E-1	2.845637E-2	1.646291E-2	-1.013123E+1	1.712873E-2	1.946206E-2	7.205661E-2	3.164702E-2
10/19/2017  17:43:57.139543	-1.550022E+0	5.561801E-3	2.664372E-2	-1.013632E+1	1.457878E-2	1.437409E-2	7.968532E-2	3.673486E-2
10/19/2017  17:43:57.140543	-2.841070E-1	3.017961E-3	1.137250E-2	-1.012614E+1	2.477858E-2	1.691808E-2	6.697081E-2	3.164702E-2
								
10/19/2017  17:43:57.141543	8.318300E-1	1.828100E-2	1.391770E-2	-1.013887E+1	1.967868E-2	2.963800E-2	7.459952E-2	2.401527E-2
10/19/2017  17:43:57.142543	3.045910E+0	1.319332E-2	2.409852E-2	-1.013378E+1	3.242842E-2	1.946206E-2	8.222822E-2	3.673486E-2
10/19/2017  17:43:57.143543	4.494849E+0	5.561801E-3	2.409852E-2	-1.012105E+1	2.222863E-2	1.691808E-2	7.205661E-2	3.927877E-2
10/19/2017  17:43:57.144543	-2.988793E+0	1.064948E-2	1.646291E-2	-1.013632E+1	1.202884E-2	1.946206E-2	6.697081E-2	3.164702E-2
10/19/2017  17:43:57.145543	-3.418390E+0	1.319332E-2	1.900811E-2	-1.015415E+1	2.222863E-2	1.691808E-2	7.205661E-2	2.910311E-2
10/19/2017  17:43:57.146543	-1.982161E+0	8.105642E-3	1.900811E-2	-1.012869E+1	2.222863E-2	1.691808E-2	6.951371E-2	3.673486E-2
10/19/2017  17:43:57.147543	-2.549027E+0	1.064948E-2	1.391770E-2	-1.013632E+1	2.987847E-2	2.455003E-2	7.459952E-2	2.910311E-2
10/19/2017  17:43:57.148543	1.767285E+0	2.591253E-2	1.900811E-2	-1.013887E+1	2.477858E-2	2.200605E-2	7.459952E-2	2.147136E-2
10/19/2017  17:43:57.149543	1.637643E+0	1.064948E-2	1.900811E-2	-1.014142E+1	1.967868E-2	2.709402E-2	7.205661E-2	3.673486E-2
10/19/2017  17:43:57.150543	-4.340848E-1	5.561801E-3	1.137250E-2	-1.013378E+1	2.732853E-2	2.455003E-2	6.951371E-2	3.164702E-2
10/19/2017  17:43:57.151543	2.725905E-1	1.319332E-2	1.646291E-2	-1.013632E+1	2.222863E-2	2.455003E-2	7.459952E-2	3.164702E-2
10/19/2017  17:43:57.152543	-5.786917E-2	8.105642E-3	3.173413E-2	-1.013378E+1	2.987847E-2	1.691808E-2	7.205661E-2	4.182269E-2
10/19/2017  17:43:57.153543	-2.764810E-1	1.319332E-2	1.137250E-2	-1.014905E+1	2.477858E-2	2.709402E-2	6.697081E-2	2.147136E-2
10/19/2017  17:43:57.154543	-2.103890E-1	1.319332E-2	1.900811E-2	-1.014396E+1	6.928941E-3	9.286120E-3	8.222822E-2	2.655919E-2
10/19/2017  17:43:57.155543	-4.976348E-1	1.573716E-2	1.646291E-2	-1.013887E+1	1.457878E-2	2.709402E-2	7.459952E-2	3.164702E-2
10/19/2017  17:43:57.156543	-7.340406E-1	2.082484E-2	1.646291E-2	-1.014651E+1	1.967868E-2	3.726996E-2	7.205661E-2	3.164702E-2
10/19/2017  17:43:57.157543	-8.074715E-2	1.319332E-2	2.409852E-2	-1.013378E+1	1.202884E-2	1.437409E-2	7.968532E-2	3.927877E-2
10/19/2017  17:43:57.158543	1.404067E-1	1.064948E-2	8.827299E-3	-1.013887E+1	2.987847E-2	6.742135E-3	6.951371E-2	2.401527E-2
10/19/2017  17:43:57.159543	5.522103E-1	4.741205E-4	1.900811E-2	-1.015160E+1	1.457878E-2	2.963800E-2	7.205661E-2	2.401527E-2
10/19/2017  17:43:57.160543	4.301944E-1	5.561801E-3	2.155331E-2	-1.013378E+1	1.712873E-2	1.691808E-2	8.222822E-2	3.673486E-2
10/19/2017  17:43:57.161543	-4.569628E-1	1.064948E-2	1.137250E-2	-1.013123E+1	3.752832E-2	1.946206E-2	7.459952E-2	3.419094E-2
10/19/2017  17:43:57.162543	-5.586427E-1	1.319332E-2	2.155331E-2	-1.015160E+1	1.967868E-2	1.691808E-2	7.205661E-2	2.655919E-2
10/19/2017  17:43:57.163543	-9.729883E-1	5.561801E-3	1.900811E-2	-1.013632E+1	9.478889E-3	1.183011E-2	6.442791E-2	2.655919E-2
10/19/2017  17:43:57.164543	-1.799138E+0	2.082484E-2	6.282096E-3	-1.014142E+1	2.477858E-2	3.472597E-2	6.951371E-2	2.401527E-2
10/19/2017  17:43:57.165543	-7.543765E-1	1.573716E-2	2.409852E-2	-1.013632E+1	1.457878E-2	1.946206E-2	8.222822E-2	3.673486E-2
10/19/2017  17:43:57.166543	-1.577984E+0	8.105642E-3	1.900811E-2	-1.013887E+1	1.967868E-2	1.946206E-2	6.951371E-2	3.164702E-2
10/19/2017  17:43:57.167543	2.675065E-1	1.319332E-2	1.900811E-2	-1.013632E+1	1.967868E-2	1.691808E-2	6.951371E-2	2.147136E-2
10/19/2017  17:43:57.168543	1.149867E-1	1.319332E-2	2.409852E-2	-1.015415E+1	1.712873E-2	1.691808E-2	7.968532E-2	3.419094E-2
10/19/2017  17:43:57.169543	8.242040E-1	2.082484E-2	2.409852E-2	-1.012614E+1	2.732853E-2	1.946206E-2	6.697081E-2	3.164702E-2
10/19/2017  17:43:57.170543	-3.034548E+0	1.064948E-2	1.900811E-2	-1.014396E+1	1.712873E-2	3.218199E-2	8.222822E-2	2.401527E-2
10/19/2017  17:43:57.171543	-2.543943E+0	1.828100E-2	8.827299E-3	-1.014396E+1	1.457878E-2	1.946206E-2	7.205661E-2	2.910311E-2
10/19/2017  17:43:57.172543	1.060610E+0	1.064948E-2	1.900811E-2	-1.014142E+1	1.712873E-2	1.946206E-2	6.697081E-2	3.164702E-2
10/19/2017  17:43:57.173543	9.309679E-1	1.828100E-2	3.173413E-2	-1.014142E+1	1.967868E-2	3.218199E-2	7.714242E-2	2.910311E-2
								
10/19/2017  17:43:57.174543	-5.278517E-2	3.017961E-3	2.409852E-2	-1.013123E+1	1.457878E-2	9.286120E-3	7.968532E-2	3.419094E-2
10/19/2017  17:43:57.175543	-2.586870E-1	1.064948E-2	6.282096E-3	-1.014396E+1	2.987847E-2	6.742135E-3	6.951371E-2	3.164702E-2
10/19/2017  17:43:57.176543	4.921904E+0	1.064948E-2	1.646291E-2	-1.014651E+1	1.967868E-2	2.455003E-2	7.968532E-2	2.401527E-2
10/19/2017  17:43:57.177543	4.032205E+0	5.561801E-3	2.155331E-2	-1.012614E+1	2.477858E-2	2.709402E-2	7.459952E-2	3.673486E-2
10/19/2017  17:43:57.178543	3.966113E+0	2.082484E-2	8.827299E-3	-1.012869E+1	3.497837E-2	3.218199E-2	6.951371E-2	2.401527E-2
10/19/2017  17:43:57.179543	-4.518788E-1	1.828100E-2	2.409852E-2	-1.013632E+1	1.712873E-2	1.946206E-2	8.222822E-2	4.182269E-2
10/19/2017  17:43:57.180543	-2.736519E-2	5.561801E-3	1.137250E-2	-1.012869E+1	2.477858E-2	1.437409E-2	7.205661E-2	3.673486E-2
10/19/2017  17:43:57.181543	1.963019E+0	2.082484E-2	1.137250E-2	-1.014396E+1	2.222863E-2	2.200605E-2	7.459952E-2	2.655919E-2
10/19/2017  17:43:57.182543	4.967660E+0	1.573716E-2	2.409852E-2	-1.013887E+1	2.987847E-2	1.946206E-2	7.459952E-2	3.673486E-2
10/19/2017  17:43:57.183543	2.802165E-1	1.319332E-2	1.391770E-2	-1.013887E+1	2.732853E-2	2.200605E-2	6.697081E-2	3.164702E-2
10/19/2017  17:43:57.184543	-3.987798E+0	1.828100E-2	1.900811E-2	-1.015415E+1	2.222863E-2	2.455003E-2	7.968532E-2	2.655919E-2
10/19/2017  17:43:57.185543	-4.956299E+0	1.064948E-2	6.282096E-3	-1.016178E+1	1.967868E-2	1.437409E-2	7.459952E-2	3.164702E-2
10/19/2017  17:43:57.186543	-2.282117E+0	1.064948E-2	1.391770E-2	-1.014651E+1	2.477858E-2	2.455003E-2	6.697081E-2	3.164702E-2
10/19/2017  17:43:57.187543	2.336693E+0	1.828100E-2	1.646291E-2	-1.013887E+1	1.967868E-2	3.472597E-2	8.222822E-2	2.401527E-2
10/19/2017  17:43:57.188543	1.210588E+0	3.017961E-3	2.918892E-2	-1.013887E+1	1.712873E-2	2.455003E-2	7.968532E-2	3.673486E-2
10/19/2017  17:43:57.189543	-1.117882E+0	5.561801E-3	1.137250E-2	-1.012614E+1	2.732853E-2	1.691808E-2	6.697081E-2	3.164702E-2
10/19/2017  17:43:57.190543	-1.059416E+0	1.064948E-2	2.409852E-2	-1.014905E+1	1.967868E-2	2.963800E-2	7.205661E-2	2.401527E-2
10/19/2017  17:43:57.191543	4.578735E+0	1.573716E-2	2.664372E-2	-1.012869E+1	1.457878E-2	1.946206E-2	9.239983E-2	3.673486E-2
10/19/2017  17:43:57.192543	1.772369E+0	1.064948E-2	3.427933E-2	-1.013123E+1	2.987847E-2	1.691808E-2	7.205661E-2	4.182269E-2
10/19/2017  17:43:57.193543	-5.383067E-1	1.573716E-2	1.137250E-2	-1.013378E+1	2.477858E-2	2.963800E-2	6.697081E-2	2.655919E-2
10/19/2017  17:43:57.194543	-2.747303E+0	1.828100E-2	8.827299E-3	-1.015415E+1	1.829045E-3	2.200605E-2	7.714242E-2	2.655919E-2
10/19/2017  17:43:57.195543	-1.677122E+0	1.064948E-2	2.664372E-2	-1.013887E+1	1.457878E-2	1.691808E-2	7.968532E-2	4.182269E-2
10/19/2017  17:43:57.196543	7.733641E-1	1.319332E-2	1.137250E-2	-1.013632E+1	2.732853E-2	2.963800E-2	6.951371E-2	3.164702E-2
10/19/2017  17:43:57.197543	-4.671308E-1	3.100021E-2	2.155331E-2	-1.013378E+1	2.222863E-2	2.455003E-2	7.459952E-2	2.401527E-2
10/19/2017  17:43:57.198543	-2.815650E-1	1.319332E-2	2.155331E-2	-1.013123E+1	1.202884E-2	1.691808E-2	8.222822E-2	3.164702E-2
10/19/2017  17:43:57.199543	5.039123E-1	-2.069720E-3	1.137250E-2	-1.013632E+1	3.497837E-2	1.691808E-2	6.951371E-2	3.927877E-2
10/19/2017  17:43:57.200543	1.754575E+0	2.082484E-2	1.137250E-2	-1.013632E+1	2.987847E-2	2.963800E-2	6.951371E-2	2.401527E-2
10/19/2017  17:43:57.201543	2.725618E+0	2.082484E-2	2.664372E-2	-1.013632E+1	3.497837E-2	1.946206E-2	7.459952E-2	2.910311E-2
10/19/2017  17:43:57.202543	-2.823563E+0	8.105642E-3	1.900811E-2	-1.013887E+1	2.222863E-2	1.691808E-2	7.459952E-2	3.673486E-2
10/19/2017  17:43:57.203543	-2.785433E+0	2.082484E-2	1.391770E-2	-1.014651E+1	2.477858E-2	1.946206E-2	6.188501E-2	2.147136E-2
10/19/2017  17:43:57.204543	8.826700E-1	2.082484E-2	2.155331E-2	-1.015924E+1	1.712873E-2	1.946206E-2	7.205661E-2	3.164702E-2
10/19/2017  17:43:57.205543	2.595976E+0	1.064948E-2	1.900811E-2	-1.012869E+1	1.967868E-2	1.437409E-2	7.459952E-2	4.436661E-2
10/19/2017  17:43:57.206543	1.253802E+0	1.064948E-2	1.646291E-2	-1.013887E+1	2.477858E-2	2.455003E-2	6.442791E-2	2.910311E-2
								
10/19/2017  17:43:57.207543	-2.713970E-1	1.573716E-2	1.391770E-2	-1.014142E+1	1.967868E-2	2.455003E-2	7.459952E-2	3.673486E-2
10/19/2017  17:43:57.208543	-5.993147E-1	1.319332E-2	2.664372E-2	-1.015160E+1	1.457878E-2	1.183011E-2	7.968532E-2	2.910311E-2
10/19/2017  17:43:57.209543	-7.035366E-1	2.082484E-2	2.664372E-2	-1.013378E+1	2.222863E-2	1.946206E-2	7.459952E-2	2.910311E-2
10/19/2017  17:43:57.210543	-5.154288E-1	1.319332E-2	1.646291E-2	-1.013378E+1	1.967868E-2	1.946206E-2	7.968532E-2	2.401527E-2
10/19/2017  17:43:57.211543	2.471706E-1	3.100021E-2	1.137250E-2	-1.014651E+1	2.732853E-2	1.691808E-2	7.459952E-2	2.655919E-2
10/19/2017  17:43:57.212543	-1.097546E+0	1.064948E-2	1.900811E-2	-1.013887E+1	1.967868E-2	1.946206E-2	6.697081E-2	3.927877E-2
10/19/2017  17:43:57.213543	-1.931321E+0	1.319332E-2	1.646291E-2	-1.013887E+1	1.457878E-2	1.946206E-2	7.205661E-2	3.164702E-2
10/19/2017  17:43:57.214543	-4.554663E+0	1.319332E-2	1.900811E-2	-1.014905E+1	2.222863E-2	2.709402E-2	7.205661E-2	2.147136E-2
10/19/2017  17:43:57.215543	-4.658885E+0	1.064948E-2	2.409852E-2	-1.014651E+1	1.712873E-2	1.691808E-2	7.968532E-2	3.164702E-2
10/19/2017  17:43:57.216543	-4.941047E+0	-2.069720E-3	1.900811E-2	-1.013632E+1	1.457878E-2	1.183011E-2	7.205661E-2	3.673486E-2
10/19/2017  17:43:57.217543	-4.658885E+0	1.319332E-2	8.827299E-3	-1.014396E+1	2.987847E-2	6.742135E-3	6.951371E-2	2.401527E-2
10/19/2017  17:43:57.218543	5.028668E+0	2.845637E-2	1.646291E-2	-1.013887E+1	1.457878E-2	1.946206E-2	7.205661E-2	3.419094E-2
10/19/2017  17:43:57.219543	5.010874E+0	8.105642E-3	2.155331E-2	-1.011850E+1	2.477858E-2	1.691808E-2	7.459952E-2	3.673486E-2
10/19/2017  17:43:57.220543	4.670247E+0	1.064948E-2	1.391770E-2	-1.012105E+1	3.497837E-2	2.963800E-2	7.205661E-2	2.910311E-2
10/19/2017  17:43:57.221543	-2.808311E+0	1.573716E-2	2.409852E-2	-1.014905E+1	2.222863E-2	2.455003E-2	7.205661E-2	2.401527E-2
10/19/2017  17:43:57.222543	-1.067042E+0	1.319332E-2	1.646291E-2	-1.014142E+1	2.222863E-2	1.946206E-2	7.714242E-2	2.147136E-2
10/19/2017  17:43:57.223543	2.151127E+0	1.064948E-2	1.646291E-2	-1.012614E+1	2.732853E-2	1.437409E-2	6.697081E-2	3.164702E-2
10/19/2017  17:43:57.224543	1.818125E+0	1.828100E-2	1.391770E-2	-1.013632E+1	2.732853E-2	2.709402E-2	6.951371E-2	1.638352E-2
10/19/2017  17:43:57.225543	1.035190E+0	1.828100E-2	2.409852E-2	-1.012869E+1	1.967868E-2	1.437409E-2	7.205661E-2	3.164702E-2
10/19/2017  17:43:57.226543	9.563879E-1	5.561801E-3	1.900811E-2	-1.012869E+1	1.967868E-2	1.691808E-2	7.205661E-2	1.892744E-2
10/19/2017  17:43:57.227543	6.589742E-1	1.319332E-2	1.137250E-2	-1.014905E+1	2.732853E-2	9.286120E-3	7.205661E-2	2.655919E-2
10/19/2017  17:43:57.228543	9.436779E-1	2.082484E-2	2.155331E-2	-1.013887E+1	1.712873E-2	3.218199E-2	7.459952E-2	2.910311E-2
10/19/2017  17:43:57.229543	1.531166E-1	4.741205E-4	2.409852E-2	-1.013632E+1	1.202884E-2	1.946206E-2	9.239983E-2	4.182269E-2
10/19/2017  17:43:57.230543	5.967806E-4	1.828100E-2	3.736893E-3	-1.013378E+1	2.477858E-2	1.691808E-2	6.697081E-2	3.164702E-2
10/19/2017  17:43:57.231543	5.680776E-3	2.082484E-2	1.391770E-2	-1.014396E+1	2.222863E-2	2.963800E-2	7.459952E-2	2.401527E-2
10/19/2017  17:43:57.232543	1.177542E+0	1.064948E-2	3.682453E-2	-1.013887E+1	2.222863E-2	2.709402E-2	7.968532E-2	2.910311E-2
10/19/2017  17:43:57.233543	1.159748E+0	5.561801E-3	1.900811E-2	-1.012614E+1	1.967868E-2	1.946206E-2	7.459952E-2	3.673486E-2
10/19/2017  17:43:57.234543	7.352341E-1	1.828100E-2	1.137250E-2	-1.013887E+1	3.497837E-2	1.437409E-2	7.205661E-2	3.164702E-2
10/19/2017  17:43:57.235543	1.538505E+0	5.561801E-3	2.409852E-2	-1.014142E+1	1.457878E-2	2.963800E-2	7.205661E-2	3.164702E-2
10/19/2017  17:43:57.236543	1.154664E+0	1.319332E-2	1.900811E-2	-1.013123E+1	1.457878E-2	1.691808E-2	7.205661E-2	2.147136E-2
10/19/2017  17:43:57.237543	-2.053050E-1	2.336868E-2	1.646291E-2	-1.012869E+1	2.987847E-2	2.455003E-2	7.459952E-2	2.910311E-2
10/19/2017  17:43:57.238543	7.682801E-1	1.064948E-2	1.646291E-2	-1.013887E+1	2.477858E-2	1.946206E-2	7.205661E-2	3.927877E-2
10/19/2017  17:43:57.239543	-1.951370E-1	1.064948E-2	2.409852E-2	-1.014142E+1	1.202884E-2	2.709402E-2	7.714242E-2	3.164702E-2
								
10/19/2017  17:43:57.240543	-1.638992E+0	5.561801E-3	1.900811E-2	-1.013123E+1	1.457878E-2	1.946206E-2	8.222822E-2	3.164702E-2
10/19/2017  17:43:57.241543	2.534968E+0	1.064948E-2	8.827299E-3	-1.012359E+1	3.242842E-2	1.691808E-2	7.205661E-2	2.910311E-2
10/19/2017  17:43:57.242543	4.904110E+0	1.828100E-2	1.391770E-2	-1.014142E+1	2.732853E-2	2.709402E-2	7.205661E-2	2.401527E-2
10/19/2017  17:43:57.243543	-1.989787E+0	1.064948E-2	1.646291E-2	-1.013887E+1	1.829045E-3	2.455003E-2	7.205661E-2	2.147136E-2
10/19/2017  17:43:57.244543	-3.232824E+0	8.105642E-3	8.827299E-3	-1.014142E+1	2.222863E-2	9.286120E-3	7.459952E-2	2.910311E-2
10/19/2017  17:43:57.245543	-1.727962E+0	1.573716E-2	1.391770E-2	-1.014142E+1	2.987847E-2	1.946206E-2	7.205661E-2	2.910311E-2
10/19/2017  17:43:57.246543	-2.281830E-1	2.336868E-2	1.900811E-2	-1.013123E+1	1.712873E-2	3.726996E-2	7.714242E-2	2.655919E-2
10/19/2017  17:43:57.247543	-3.588704E+0	4.741205E-4	2.664372E-2	-1.014142E+1	1.457878E-2	1.691808E-2	7.968532E-2	3.419094E-2
10/19/2017  17:43:57.248543	-3.054884E+0	5.561801E-3	1.646291E-2	-1.014651E+1	2.222863E-2	1.691808E-2	6.697081E-2	3.164702E-2
10/19/2017  17:43:57.249543	3.236560E+0	3.017961E-3	2.155331E-2	-1.013887E+1	2.477858E-2	2.200605E-2	7.205661E-2	3.164702E-2
10/19/2017  17:43:57.250543	4.634659E+0	2.591253E-2	1.646291E-2	-1.013123E+1	2.477858E-2	2.963800E-2	8.985693E-2	3.164702E-2
10/19/2017  17:43:57.251543	1.612223E+0	1.064948E-2	1.391770E-2	-1.013378E+1	2.477858E-2	2.963800E-2	7.459952E-2	3.673486E-2
10/19/2017  17:43:57.252543	-2.561737E+0	5.561801E-3	1.137250E-2	-1.014142E+1	2.222863E-2	2.455003E-2	6.951371E-2	3.164702E-2
10/19/2017  17:43:57.253543	-1.471220E+0	1.828100E-2	6.282096E-3	-1.014905E+1	1.712873E-2	2.709402E-2	7.459952E-2	3.164702E-2
10/19/2017  17:43:57.254543	-7.823385E-1	5.561801E-3	2.155331E-2	-1.014905E+1	2.732853E-2	1.946206E-2	8.222822E-2	3.164702E-2
10/19/2017  17:43:57.255543	-5.662687E-1	1.064948E-2	2.409852E-2	-1.013632E+1	1.967868E-2	2.963800E-2	7.205661E-2	3.164702E-2
10/19/2017  17:43:57.256543	-2.421927E+0	1.319332E-2	1.646291E-2	-1.015160E+1	1.457878E-2	2.963800E-2	7.205661E-2	2.147136E-2
10/19/2017  17:43:57.257543	-2.005039E+0	8.105642E-3	2.155331E-2	-1.014142E+1	1.457878E-2	9.286120E-3	7.968532E-2	2.147136E-2
10/19/2017  17:43:57.258543	-2.551569E+0	5.561801E-3	1.646291E-2	-1.015160E+1	3.497837E-2	1.691808E-2	7.205661E-2	3.927877E-2
10/19/2017  17:43:57.259543	1.086030E+0	1.828100E-2	1.137250E-2	-1.014651E+1	2.987847E-2	2.963800E-2	6.951371E-2	2.910311E-2
10/19/2017  17:43:57.260543	4.083045E+0	2.336868E-2	1.900811E-2	-1.014396E+1	4.007827E-2	1.946206E-2	7.714242E-2	2.655919E-2
10/19/2017  17:43:57.261543	4.855812E+0	5.561801E-3	8.827299E-3	-1.013632E+1	2.222863E-2	1.437409E-2	6.951371E-2	3.927877E-2
10/19/2017  17:43:57.262543	7.987841E-1	8.105642E-3	1.137250E-2	-1.013632E+1	1.457878E-2	2.455003E-2	6.188501E-2	3.164702E-2
10/19/2017  17:43:57.263543	-1.798851E-1	1.828100E-2	2.918892E-2	-1.015669E+1	1.457878E-2	2.200605E-2	8.222822E-2	3.164702E-2
10/19/2017  17:43:57.264543	-2.210941E+0	1.064948E-2	1.646291E-2	-1.013887E+1	2.477858E-2	1.183011E-2	7.459952E-2	5.199836E-2
10/19/2017  17:43:57.265543	-1.191600E+0	1.573716E-2	1.391770E-2	-1.014142E+1	2.987847E-2	2.455003E-2	6.188501E-2	3.164702E-2
10/19/2017  17:43:57.266543	2.578182E+0	1.573716E-2	1.646291E-2	-1.014396E+1	2.222863E-2	3.472597E-2	7.205661E-2	1.638352E-2
10/19/2017  17:43:57.267543	1.157206E+0	1.319332E-2	1.900811E-2	-1.015160E+1	1.457878E-2	1.183011E-2	8.222822E-2	3.164702E-2
10/19/2017  17:43:57.268543	7.809901E-1	1.828100E-2	2.409852E-2	-1.014142E+1	2.477858E-2	1.946206E-2	7.459952E-2	3.419094E-2
10/19/2017  17:43:57.269543	6.564322E-1	1.828100E-2	1.391770E-2	-1.013378E+1	1.967868E-2	2.963800E-2	7.205661E-2	2.401527E-2
10/19/2017  17:43:57.270543	8.775860E-1	1.573716E-2	1.900811E-2	-1.013632E+1	1.202884E-2	1.691808E-2	8.222822E-2	2.910311E-2
10/19/2017  17:43:57.271543	4.098584E-1	-2.069720E-3	1.391770E-2	-1.013123E+1	1.967868E-2	1.437409E-2	7.205661E-2	3.927877E-2
10/19/2017  17:43:57.272543	-9.345713E-2	1.064948E-2	3.736893E-3	-1.013632E+1	2.477858E-2	3.472597E-2	6.951371E-2	2.655919E-2
								
10/19/2017  17:43:57.273543	-1.671751E-1	2.591253E-2	2.155331E-2	-1.014651E+1	1.457878E-2	2.709402E-2	7.968532E-2	3.164702E-2
10/19/2017  17:43:57.274543	-5.001768E-1	5.561801E-3	2.155331E-2	-1.013123E+1	1.712873E-2	6.742135E-3	7.968532E-2	3.419094E-2
10/19/2017  17:43:57.275543	-1.204310E+0	5.561801E-3	1.391770E-2	-1.014142E+1	2.732853E-2	2.455003E-2	6.697081E-2	3.164702E-2
10/19/2017  17:43:57.276543	-1.809306E+0	1.828100E-2	1.900811E-2	-1.014905E+1	1.967868E-2	2.455003E-2	7.459952E-2	3.164702E-2
10/19/2017  17:43:57.277543	-9.679043E-1	2.591253E-2	1.646291E-2	-1.014651E+1	2.477858E-2	2.455003E-2	7.459952E-2	3.419094E-2
10/19/2017  17:43:57.278543	-1.326326E+0	8.105642E-3	2.155331E-2	-1.014396E+1	1.967868E-2	1.946206E-2	7.459952E-2	3.164702E-2
10/19/2017  17:43:57.279543	-2.109261E+0	1.319332E-2	1.646291E-2	-1.012614E+1	1.457878E-2	1.946206E-2	6.951371E-2	3.164702E-2
10/19/2017  17:43:57.280543	-2.460057E+0	1.319332E-2	1.391770E-2	-1.014142E+1	2.222863E-2	1.946206E-2	7.205661E-2	3.164702E-2
10/19/2017  17:43:57.281543	4.977828E+0	1.064948E-2	2.155331E-2	-1.012614E+1	3.497837E-2	1.691808E-2	7.968532E-2	4.436661E-2
10/19/2017  17:43:57.282543	2.766290E+0	1.319332E-2	1.900811E-2	-1.012869E+1	3.242842E-2	1.946206E-2	6.697081E-2	3.164702E-2
10/19/2017  17:43:57.283543	-4.930879E+0	2.082484E-2	2.409852E-2	-1.014905E+1	1.829045E-3	2.455003E-2	7.205661E-2	2.147136E-2
10/19/2017  17:43:57.284543	-3.237908E+0	1.064948E-2	2.918892E-2	-1.014905E+1	1.457878E-2	1.183011E-2	7.459952E-2	3.673486E-2
10/19/2017  17:43:57.285543	-4.493368E-1	1.064948E-2	1.646291E-2	-1.014142E+1	2.477858E-2	2.200605E-2	6.951371E-2	2.910311E-2
10/19/2017  17:43:57.286543	1.927431E+0	1.828100E-2	1.391770E-2	-1.012614E+1	2.222863E-2	2.963800E-2	8.222822E-2	2.655919E-2
10/19/2017  17:43:57.287543	1.586803E+0	1.828100E-2	2.664372E-2	-1.013632E+1	1.712873E-2	1.946206E-2	7.459952E-2	3.164702E-2
10/19/2017  17:43:57.288543	2.115539E+0	3.017961E-3	1.391770E-2	-1.013632E+1	2.732853E-2	1.183011E-2	7.714242E-2	3.927877E-2
10/19/2017  17:43:57.289543	3.818964E-1	1.573716E-2	3.736893E-3	-1.014142E+1	2.222863E-2	3.218199E-2	6.951371E-2	2.401527E-2
10/19/2017  17:43:57.290543	-1.036251E-1	2.082484E-2	2.155331E-2	-1.014905E+1	1.457878E-2	2.963800E-2	8.731403E-2	2.401527E-2
10/19/2017  17:43:57.291543	3.798341E+0	1.573716E-2	1.137250E-2	-1.014142E+1	2.477858E-2	2.709402E-2	7.714242E-2	3.673486E-2
10/19/2017  17:43:57.292543	-1.620911E-1	8.105642E-3	8.827299E-3	-1.013887E+1	2.477858E-2	2.455003E-2	6.442791E-2	3.164702E-2
10/19/2017  17:43:57.293543	-1.801680E+0	1.828100E-2	1.191689E-3	-1.013887E+1	1.202884E-2	2.200605E-2	7.459952E-2	2.147136E-2
10/19/2017  17:43:57.294543	2.946772E+0	2.082484E-2	1.646291E-2	-1.013887E+1	1.967868E-2	2.200605E-2	8.222822E-2	3.164702E-2
10/19/2017  17:43:57.295543	-1.186516E+0	8.105642E-3	2.409852E-2	-1.013378E+1	1.457878E-2	2.963800E-2	7.459952E-2	4.182269E-2
10/19/2017  17:43:57.296543	-3.781896E+0	1.573716E-2	8.827299E-3	-1.013123E+1	2.477858E-2	2.455003E-2	6.951371E-2	2.910311E-2
10/19/2017  17:43:57.297543	-7.264146E-1	2.082484E-2	1.137250E-2	-1.015160E+1	2.222863E-2	2.709402E-2	7.459952E-2	1.892744E-2
10/19/2017  17:43:57.298543	2.555304E+0	1.828100E-2	2.409852E-2	-1.014905E+1	1.712873E-2	1.946206E-2	7.714242E-2	3.419094E-2
10/19/2017  17:43:57.299543	2.827585E-1	8.105642E-3	1.900811E-2	-1.012869E+1	1.712873E-2	1.437409E-2	7.205661E-2	3.673486E-2
10/19/2017  17:43:57.300543	-4.770118E-2	1.319332E-2	1.137250E-2	-1.013632E+1	2.987847E-2	1.946206E-2	7.205661E-2	2.910311E-2
10/19/2017  17:43:57.301543	9.080900E-1	1.828100E-2	2.155331E-2	-1.014905E+1	1.967868E-2	2.709402E-2	7.205661E-2	3.164702E-2
10/19/2017  17:43:57.302543	2.372281E+0	1.064948E-2	2.409852E-2	-1.013632E+1	1.202884E-2	2.455003E-2	6.697081E-2	1.892744E-2
10/19/2017  17:43:57.303543	3.465340E+0	8.105642E-3	1.646291E-2	-1.013378E+1	2.732853E-2	1.437409E-2	6.951371E-2	3.419094E-2
10/19/2017  17:43:57.304543	-3.265870E+0	1.828100E-2	1.391770E-2	-1.014905E+1	2.987847E-2	2.455003E-2	6.951371E-2	3.419094E-2
10/19/2017  17:43:57.305543	-2.322789E+0	1.828100E-2	3.173413E-2	-1.014905E+1	1.457878E-2	2.455003E-2	7.714242E-2	3.164702E-2
								
10/19/2017  17:43:57.306543	3.099292E+0	-2.069720E-3	1.646291E-2	-1.012869E+1	1.712873E-2	1.437409E-2	7.205661E-2	3.673486E-2
10/19/2017  17:43:57.307543	3.498386E+0	1.064948E-2	1.391770E-2	-1.013632E+1	2.732853E-2	1.691808E-2	7.205661E-2	2.910311E-2
10/19/2017  17:43:57.308543	7.581121E-1	1.573716E-2	2.918892E-2	-1.013887E+1	2.222863E-2	2.963800E-2	7.205661E-2	2.147136E-2
10/19/2017  17:43:57.309543	-3.883289E-1	1.573716E-2	1.646291E-2	-1.013887E+1	1.202884E-2	2.709402E-2	9.239983E-2	3.673486E-2
10/19/2017  17:43:57.310543	-1.758466E+0	8.105642E-3	2.409852E-2	-1.013632E+1	2.477858E-2	1.437409E-2	6.951371E-2	3.927877E-2
10/19/2017  17:43:57.311543	-5.637267E-1	2.082484E-2	8.827299E-3	-1.014396E+1	2.477858E-2	3.218199E-2	6.697081E-2	2.401527E-2
10/19/2017  17:43:57.312543	-7.312115E-2	1.319332E-2	3.173413E-2	-1.014142E+1	1.202884E-2	1.691808E-2	8.222822E-2	3.164702E-2
10/19/2017  17:43:57.313543	3.971484E-1	1.064948E-2	1.900811E-2	-1.013632E+1	2.477858E-2	2.200605E-2	7.714242E-2	3.419094E-2
10/19/2017  17:43:57.314543	2.112997E+0	1.319332E-2	1.391770E-2	-1.013632E+1	3.497837E-2	2.200605E-2	6.951371E-2	3.164702E-2
10/19/2017  17:43:57.315543	3.872059E+0	1.319332E-2	1.646291E-2	-1.014396E+1	1.967868E-2	2.963800E-2	7.205661E-2	2.401527E-2
10/19/2017  17:43:57.316543	1.126702E+0	8.105642E-3	2.155331E-2	-1.013123E+1	1.457878E-2	1.183011E-2	8.222822E-2	3.673486E-2
10/19/2017  17:43:57.317543	-3.146109E-1	3.017961E-3	1.137250E-2	-1.014396E+1	1.967868E-2	1.946206E-2	7.205661E-2	3.164702E-2
10/19/2017  17:43:57.318543	-2.887113E+0	1.573716E-2	2.155331E-2	-1.015160E+1	1.712873E-2	2.963800E-2	6.951371E-2	2.910311E-2
10/19/2017  17:43:57.319543	-3.227740E+0	1.319332E-2	2.409852E-2	-1.013123E+1	1.202884E-2	1.691808E-2	8.222822E-2	2.655919E-2
10/19/2017  17:43:57.320543	-2.223651E+0	5.561801E-3	1.646291E-2	-1.014142E+1	1.967868E-2	1.437409E-2	7.205661E-2	3.419094E-2
10/19/2017  17:43:57.321543	-2.760013E+0	1.573716E-2	1.391770E-2	-1.014142E+1	1.202884E-2	1.946206E-2	6.697081E-2	2.401527E-2
10/19/2017  17:43:57.322543	-7.365826E-1	1.828100E-2	1.900811E-2	-1.012869E+1	2.477858E-2	2.963800E-2	7.714242E-2	2.147136E-2
10/19/2017  17:43:57.323543	3.950861E+0	8.105642E-3	2.155331E-2	-1.012869E+1	1.712873E-2	1.183011E-2	7.968532E-2	2.910311E-2
10/19/2017  17:43:57.324543	4.291489E+0	1.064948E-2	1.391770E-2	-1.013378E+1	2.987847E-2	1.946206E-2	6.442791E-2	3.164702E-2
10/19/2017  17:43:57.325543	1.744407E+0	1.573716E-2	1.646291E-2	-1.013632E+1	1.967868E-2	2.709402E-2	7.205661E-2	1.129569E-2
10/19/2017  17:43:57.326543	-1.692374E+0	1.573716E-2	1.900811E-2	-1.014651E+1	1.457878E-2	1.437409E-2	7.459952E-2	2.655919E-2
10/19/2017  17:43:57.327543	-1.529686E+0	1.828100E-2	2.918892E-2	-1.014396E+1	2.477858E-2	1.946206E-2	7.205661E-2	3.164702E-2
10/19/2017  17:43:57.328543	-6.882846E-1	1.573716E-2	1.900811E-2	-1.014142E+1	2.477858E-2	2.455003E-2	6.951371E-2	2.401527E-2
10/19/2017  17:43:57.329543	-4.290008E-1	4.741205E-4	1.646291E-2	-1.013887E+1	1.202884E-2	1.691808E-2	8.222822E-2	2.910311E-2
10/19/2017  17:43:57.330543	-1.239611E-1	8.105642E-3	1.900811E-2	-1.013378E+1	2.222863E-2	1.691808E-2	6.951371E-2	3.673486E-2
10/19/2017  17:43:57.331543	5.445843E-1	2.082484E-2	1.900811E-2	-1.014651E+1	2.477858E-2	2.963800E-2	6.951371E-2	2.655919E-2
10/19/2017  17:43:57.332543	-1.824271E-1	2.336868E-2	2.664372E-2	-1.014142E+1	1.457878E-2	2.709402E-2	7.968532E-2	3.164702E-2
10/19/2017  17:43:57.333543	6.310122E-1	8.105642E-3	6.282096E-3	-1.013123E+1	2.222863E-2	4.198150E-3	7.459952E-2	3.419094E-2
10/19/2017  17:43:57.334543	-5.027188E-1	8.105642E-3	1.137250E-2	-1.014651E+1	2.477858E-2	1.946206E-2	7.205661E-2	3.164702E-2
10/19/2017  17:43:57.335543	-8.738504E-1	1.064948E-2	1.646291E-2	-1.013632E+1	2.222863E-2	3.981394E-2	7.459952E-2	3.419094E-2
10/19/2017  17:43:57.336543	-2.790230E-1	2.336868E-2	1.391770E-2	-1.012869E+1	2.987847E-2	1.183011E-2	7.968532E-2	3.673486E-2
10/19/2017  17:43:57.337543	-5.179708E-1	1.828100E-2	1.391770E-2	-1.014651E+1	2.987847E-2	2.455003E-2	7.459952E-2	3.927877E-2
10/19/2017  17:43:57.338543	-7.950485E-1	4.741205E-4	1.646291E-2	-1.015160E+1	6.928941E-3	1.946206E-2	7.714242E-2	2.401527E-2
								
10/19/2017  17:43:57.339543	8.140360E-1	5.561801E-3	1.646291E-2	-1.013887E+1	2.987847E-2	9.286120E-3	7.459952E-2	3.673486E-2
10/19/2017  17:43:57.340543	-9.091514E-2	2.082484E-2	1.900811E-2	-1.014651E+1	2.987847E-2	2.709402E-2	7.968532E-2	2.655919E-2
10/19/2017  17:43:57.341543	-1.011118E+0	1.573716E-2	2.918892E-2	-1.014142E+1	2.477858E-2	2.709402E-2	7.714242E-2	2.655919E-2
10/19/2017  17:43:57.342543	1.076477E-2	1.064948E-2	8.827299E-3	-1.013123E+1	1.457878E-2	2.455003E-2	6.697081E-2	2.147136E-2
10/19/2017  17:43:57.343543	-1.315871E-1	1.064948E-2	1.137250E-2	-1.013123E+1	2.222863E-2	2.455003E-2	7.205661E-2	2.147136E-2
10/19/2017  17:43:57.344543	-4.839367E+0	1.064948E-2	2.155331E-2	-1.014142E+1	1.457878E-2	1.183011E-2	7.968532E-2	5.199836E-2
10/19/2017  17:43:57.345543	4.906652E+0	1.064948E-2	1.391770E-2	-1.011341E+1	2.732853E-2	2.963800E-2	7.459952E-2	2.910311E-2
10/19/2017  17:43:57.346543	-1.463594E+0	1.064948E-2	2.664372E-2	-1.014142E+1	2.477858E-2	1.691808E-2	7.459952E-2	2.910311E-2
10/19/2017  17:43:57.347543	4.985454E+0	5.561801E-3	1.900811E-2	-1.013632E+1	2.222863E-2	6.742135E-3	6.442791E-2	3.927877E-2
10/19/2017  17:43:57.348543	2.542594E+0	8.105642E-3	1.646291E-2	-1.013123E+1	2.987847E-2	2.455003E-2	6.697081E-2	2.910311E-2
10/19/2017  17:43:57.349543	1.523253E+0	2.082484E-2	2.409852E-2	-1.013632E+1	1.712873E-2	2.963800E-2	7.968532E-2	2.655919E-2
10/19/2017  17:43:57.350543	2.578182E+0	1.064948E-2	1.137250E-2	-1.012869E+1	2.477858E-2	9.286120E-3	7.459952E-2	3.673486E-2
10/19/2017  17:43:57.351543	3.216224E+0	8.105642E-3	2.155331E-2	-1.013632E+1	2.477858E-2	2.455003E-2	6.951371E-2	2.401527E-2
10/19/2017  17:43:57.352543	3.798341E+0	1.064948E-2	1.900811E-2	-1.013123E+1	2.477858E-2	1.691808E-2	7.459952E-2	2.655919E-2
10/19/2017  17:43:57.353543	1.675773E+0	1.064948E-2	1.900811E-2	-1.012614E+1	2.477858E-2	1.437409E-2	7.714242E-2	3.927877E-2
10/19/2017  17:43:57.354543	-2.114345E+0	1.828100E-2	1.646291E-2	-1.014651E+1	2.732853E-2	2.963800E-2	6.951371E-2	2.401527E-2
10/19/2017  17:43:57.355543	-3.039632E+0	3.100021E-2	2.155331E-2	-1.014396E+1	1.202884E-2	2.709402E-2	7.714242E-2	2.655919E-2
10/19/2017  17:43:57.356543	-1.272944E+0	1.319332E-2	1.391770E-2	-1.013378E+1	2.222863E-2	9.286120E-3	7.205661E-2	2.655919E-2
10/19/2017  17:43:57.357543	1.048187E-1	2.082484E-2	8.827299E-3	-1.014142E+1	3.242842E-2	1.946206E-2	6.697081E-2	2.401527E-2
10/19/2017  17:43:57.358543	-4.007518E-2	2.336868E-2	2.155331E-2	-1.013632E+1	2.222863E-2	2.455003E-2	7.714242E-2	2.910311E-2
10/19/2017  17:43:57.359543	-9.348584E-1	1.319332E-2	1.646291E-2	-1.013632E+1	1.457878E-2	2.200605E-2	7.714242E-2	2.910311E-2
10/19/2017  17:43:57.360543	-1.511892E+0	1.064948E-2	8.827299E-3	-1.014651E+1	2.477858E-2	1.691808E-2	6.697081E-2	3.164702E-2
10/19/2017  17:43:57.361543	-1.646618E+0	1.573716E-2	2.918892E-2	-1.013378E+1	9.478889E-3	2.709402E-2	7.205661E-2	1.638352E-2
10/19/2017  17:43:57.362543	-3.573452E+0	1.064948E-2	1.646291E-2	-1.014651E+1	2.222863E-2	1.437409E-2	7.714242E-2	3.673486E-2
10/19/2017  17:43:57.363543	-4.938505E+0	1.573716E-2	1.391770E-2	-1.015160E+1	2.987847E-2	2.455003E-2	6.442791E-2	3.673486E-2
10/19/2017  17:43:57.364543	-4.397059E+0	2.336868E-2	2.664372E-2	-1.015415E+1	2.222863E-2	2.200605E-2	7.714242E-2	2.655919E-2
10/19/2017  17:43:57.365543	-4.630923E+0	1.573716E-2	2.155331E-2	-1.014142E+1	2.222863E-2	1.691808E-2	7.459952E-2	2.910311E-2
10/19/2017  17:43:57.366543	-1.161096E+0	1.828100E-2	1.391770E-2	-1.014651E+1	2.987847E-2	9.286120E-3	7.205661E-2	3.164702E-2
10/19/2017  17:43:57.367543	5.015958E+0	1.828100E-2	2.155331E-2	-1.013887E+1	2.222863E-2	1.946206E-2	7.205661E-2	3.164702E-2
10/19/2017  17:43:57.368543	4.970202E+0	4.741205E-4	1.646291E-2	-1.011850E+1	1.967868E-2	2.709402E-2	7.714242E-2	3.164702E-2
10/19/2017  17:43:57.369543	-4.008134E+0	2.336868E-2	1.137250E-2	-1.014142E+1	2.987847E-2	2.200605E-2	6.697081E-2	1.892744E-2
10/19/2017  17:43:57.370543	-1.651702E+0	1.828100E-2	2.664372E-2	-1.013887E+1	1.457878E-2	1.946206E-2	6.951371E-2	3.164702E-2
10/19/2017  17:43:57.371543	3.889853E+0	8.105642E-3	1.646291E-2	-1.012614E+1	1.967868E-2	1.183011E-2	7.459952E-2	3.164702E-2
								
10/19/2017  17:43:57.372543	3.386825E-1	1.828100E-2	1.137250E-2	-1.013378E+1	2.222863E-2	2.200605E-2	7.205661E-2	3.419094E-2
10/19/2017  17:43:57.373543	-2.688837E+0	1.064948E-2	1.646291E-2	-1.013887E+1	1.457878E-2	1.183011E-2	8.222822E-2	2.401527E-2
10/19/2017  17:43:57.374543	-5.306807E-1	3.017961E-3	1.137250E-2	-1.014396E+1	2.222863E-2	1.691808E-2	7.205661E-2	3.673486E-2
10/19/2017  17:43:57.375543	1.324978E+0	1.064948E-2	1.137250E-2	-1.014651E+1	3.242842E-2	1.691808E-2	6.951371E-2	2.655919E-2
10/19/2017  17:43:57.376543	2.522546E-1	2.591253E-2	1.900811E-2	-1.013123E+1	2.987847E-2	1.946206E-2	7.459952E-2	3.164702E-2
10/19/2017  17:43:57.377543	-1.773431E-1	5.561801E-3	1.646291E-2	-1.013123E+1	2.222863E-2	1.946206E-2	7.205661E-2	2.401527E-2
10/19/2017  17:43:57.378543	-5.484747E-1	1.064948E-2	8.827299E-3	-1.012869E+1	2.732853E-2	2.200605E-2	6.951371E-2	2.655919E-2
10/19/2017  17:43:57.379543	9.538459E-1	2.082484E-2	1.137250E-2	-1.014142E+1	2.222863E-2	2.709402E-2	7.459952E-2	3.164702E-2
10/19/2017  17:43:57.380543	4.982912E+0	1.064948E-2	1.900811E-2	-1.013123E+1	4.378993E-3	2.200605E-2	7.968532E-2	2.655919E-2
10/19/2017  17:43:57.381543	1.576635E+0	1.064948E-2	2.155331E-2	-1.013887E+1	1.967868E-2	2.200605E-2	7.459952E-2	3.164702E-2
10/19/2017  17:43:57.382543	1.309726E+0	1.828100E-2	1.900811E-2	-1.013887E+1	1.457878E-2	2.709402E-2	7.459952E-2	1.892744E-2
10/19/2017  17:43:57.383543	-1.849978E+0	1.064948E-2	1.900811E-2	-1.015160E+1	1.202884E-2	1.946206E-2	8.222822E-2	3.673486E-2
10/19/2017  17:43:57.384543	-2.882029E+0	5.561801E-3	2.155331E-2	-1.013887E+1	2.222863E-2	1.691808E-2	6.951371E-2	3.419094E-2
10/19/2017  17:43:57.385543	-1.468678E+0	1.573716E-2	1.391770E-2	-1.013632E+1	2.732853E-2	3.472597E-2	7.459952E-2	2.147136E-2
10/19/2017  17:43:57.386543	1.576635E+0	2.591253E-2	1.900811E-2	-1.015160E+1	1.457878E-2	2.963800E-2	8.222822E-2	2.655919E-2
10/19/2017  17:43:57.387543	4.957492E+0	3.017961E-3	1.900811E-2	-1.012614E+1	2.222863E-2	6.742135E-3	6.697081E-2	3.673486E-2
10/19/2017  17:43:57.388543	5.013416E+0	4.741205E-4	3.736893E-3	-1.013632E+1	2.732853E-2	1.946206E-2	6.951371E-2	3.164702E-2
10/19/2017  17:43:57.389543	5.064543E-1	1.573716E-2	1.646291E-2	-1.013887E+1	1.457878E-2	2.709402E-2	9.239983E-2	2.147136E-2
10/19/2017  17:43:57.390543	-4.941047E+0	1.064948E-2	3.173413E-2	-1.014651E+1	1.712873E-2	9.286120E-3	7.968532E-2	3.164702E-2
10/19/2017  17:43:57.391543	-4.943589E+0	5.561801E-3	1.137250E-2	-1.014905E+1	2.477858E-2	1.183011E-2	5.934210E-2	2.910311E-2
10/19/2017  17:43:57.392543	-2.025375E+0	1.828100E-2	1.137250E-2	-1.014651E+1	1.457878E-2	2.963800E-2	7.714242E-2	2.147136E-2
10/19/2017  17:43:57.393543	-1.346662E+0	1.828100E-2	2.155331E-2	-1.013632E+1	1.967868E-2	2.200605E-2	7.968532E-2	3.164702E-2
10/19/2017  17:43:57.394543	-1.293280E+0	5.561801E-3	1.900811E-2	-1.012359E+1	2.222863E-2	2.455003E-2	7.205661E-2	3.927877E-2
10/19/2017  17:43:57.395543	-1.570358E+0	2.845637E-2	1.900811E-2	-1.013378E+1	1.457878E-2	1.946206E-2	7.205661E-2	2.147136E-2
10/19/2017  17:43:57.396543	-1.974535E+0	1.319332E-2	1.900811E-2	-1.014396E+1	1.457878E-2	1.691808E-2	8.222822E-2	2.147136E-2
10/19/2017  17:43:57.397543	-1.089920E+0	-2.069720E-3	1.646291E-2	-1.014396E+1	1.967868E-2	1.691808E-2	7.205661E-2	3.673486E-2
10/19/2017  17:43:57.398543	-2.281830E-1	1.319332E-2	1.646291E-2	-1.013632E+1	2.477858E-2	1.946206E-2	6.951371E-2	3.164702E-2
10/19/2017  17:43:57.399543	1.839076E-2	2.082484E-2	1.391770E-2	-1.014396E+1	2.477858E-2	2.709402E-2	7.968532E-2	2.401527E-2
10/19/2017  17:43:57.400543	1.563925E+0	1.064948E-2	2.409852E-2	-1.014651E+1	1.457878E-2	1.437409E-2	7.968532E-2	3.419094E-2
10/19/2017  17:43:57.401543	1.408864E+0	3.017961E-3	1.137250E-2	-1.012614E+1	4.378993E-3	2.455003E-2	7.459952E-2	3.927877E-2
10/19/2017  17:43:57.402543	6.742262E-1	1.064948E-2	2.155331E-2	-1.014651E+1	1.967868E-2	1.437409E-2	7.968532E-2	2.401527E-2
10/19/2017  17:43:57.403543	4.912023E-1	1.319332E-2	1.900811E-2	-1.014142E+1	2.477858E-2	1.946206E-2	8.985693E-2	4.182269E-2
10/19/2017  17:43:57.404543	-1.315871E-1	3.017961E-3	1.646291E-2	-1.012614E+1	2.222863E-2	1.437409E-2	7.459952E-2	3.927877E-2
								
10/19/2017  17:43:57.405543	-6.549516E-2	1.064948E-2	1.137250E-2	-1.013632E+1	2.732853E-2	2.963800E-2	7.205661E-2	1.892744E-2
10/19/2017  17:43:57.406543	9.106320E-1	2.336868E-2	2.664372E-2	-1.016942E+1	1.457878E-2	1.437409E-2	8.477112E-2	2.910311E-2
10/19/2017  17:43:57.407543	1.441909E+0	1.064948E-2	1.646291E-2	-1.012869E+1	2.477858E-2	1.183011E-2	7.205661E-2	3.927877E-2
10/19/2017  17:43:57.408543	8.928380E-1	1.064948E-2	1.646291E-2	-1.013378E+1	2.987847E-2	2.455003E-2	6.697081E-2	3.164702E-2
10/19/2017  17:43:57.409543	2.593434E+0	2.336868E-2	1.900811E-2	-1.014142E+1	1.202884E-2	1.946206E-2	7.968532E-2	2.910311E-2
10/19/2017  17:43:57.410543	1.291932E+0	1.064948E-2	1.646291E-2	-1.013632E+1	2.477858E-2	1.437409E-2	6.951371E-2	2.910311E-2
10/19/2017  17:43:57.411543	-6.755746E-1	1.319332E-2	3.173413E-2	-1.013632E+1	2.222863E-2	2.455003E-2	7.459952E-2	3.164702E-2
10/19/2017  17:43:57.412543	3.971484E-1	1.319332E-2	1.900811E-2	-1.014396E+1	1.457878E-2	2.455003E-2	7.968532E-2	3.164702E-2
10/19/2017  17:43:57.413543	-1.247524E+0	3.017961E-3	1.900811E-2	-1.013632E+1	2.477858E-2	9.286120E-3	7.205661E-2	3.673486E-2
10/19/2017  17:43:57.414543	-1.351746E+0	5.561801E-3	1.137250E-2	-1.014651E+1	2.477858E-2	2.200605E-2	6.697081E-2	3.164702E-2
10/19/2017  17:43:57.415543	-3.004045E+0	1.319332E-2	1.900811E-2	-1.014651E+1	2.477858E-2	3.218199E-2	7.459952E-2	2.147136E-2
10/19/2017  17:43:57.416543	-1.199226E+0	5.561801E-3	2.155331E-2	-1.014905E+1	1.712873E-2	1.946206E-2	7.459952E-2	3.419094E-2
10/19/2017  17:43:57.417543	4.189809E+0	8.105642E-3	8.827299E-3	-1.014142E+1	2.732853E-2	1.946206E-2	6.951371E-2	3.927877E-2
10/19/2017  17:43:57.418543	4.060167E+0	4.741205E-4	1.391770E-2	-1.014142E+1	1.202884E-2	2.963800E-2	7.205661E-2	3.673486E-2
10/19/2017  17:43:57.419543	-1.156012E+0	1.319332E-2	1.900811E-2	-1.013632E+1	1.457878E-2	1.691808E-2	7.968532E-2	3.927877E-2
10/19/2017  17:43:57.420543	-9.984083E-1	8.105642E-3	2.155331E-2	-1.012869E+1	2.477858E-2	1.691808E-2	7.205661E-2	4.182269E-2
10/19/2017  17:43:57.421543	2.481587E+0	1.319332E-2	1.900811E-2	-1.014905E+1	2.987847E-2	2.455003E-2	7.205661E-2	2.401527E-2
10/19/2017  17:43:57.422543	-1.468391E-1	2.336868E-2	2.155331E-2	-1.014142E+1	1.202884E-2	2.455003E-2	7.714242E-2	2.147136E-2
10/19/2017  17:43:57.423543	-8.052165E-1	1.064948E-2	2.409852E-2	-1.012614E+1	1.712873E-2	1.437409E-2	8.222822E-2	3.673486E-2
10/19/2017  17:43:57.424543	6.081342E-1	5.561801E-3	1.137250E-2	-1.013887E+1	2.477858E-2	1.946206E-2	6.951371E-2	4.182269E-2
10/19/2017  17:43:57.425543	3.920644E-1	1.573716E-2	1.646291E-2	-1.012869E+1	2.222863E-2	3.218199E-2	7.205661E-2	2.910311E-2
10/19/2017  17:43:57.426543	-2.510610E-1	1.319332E-2	1.900811E-2	-1.013123E+1	1.457878E-2	1.946206E-2	8.222822E-2	2.655919E-2
10/19/2017  17:43:57.427543	-2.942750E-1	1.573716E-2	1.900811E-2	-1.014651E+1	1.967868E-2	9.286120E-3	6.697081E-2	3.164702E-2
10/19/2017  17:43:57.428543	-2.815650E-1	5.561801E-3	8.827299E-3	-1.014396E+1	2.222863E-2	1.691808E-2	6.951371E-2	3.164702E-2
10/19/2017  17:43:57.429543	-2.917330E-1	1.064948E-2	1.646291E-2	-1.014142E+1	2.477858E-2	2.709402E-2	7.459952E-2	2.910311E-2
10/19/2017  17:43:57.430543	-2.993589E-1	1.573716E-2	3.173413E-2	-1.013123E+1	2.222863E-2	1.437409E-2	8.222822E-2	3.927877E-2
10/19/2017  17:43:57.431543	-4.874668E-1	5.561801E-3	1.137250E-2	-1.012869E+1	2.732853E-2	1.946206E-2	7.459952E-2	3.419094E-2
10/19/2017  17:43:57.432543	-6.882846E-1	1.064948E-2	2.155331E-2	-1.013378E+1	1.712873E-2	3.218199E-2	7.459952E-2	2.401527E-2
10/19/2017  17:43:57.433543	8.448270E-2	2.336868E-2	2.155331E-2	-1.013887E+1	1.967868E-2	1.946206E-2	8.222822E-2	3.164702E-2
10/19/2017  17:43:57.434543	3.040826E+0	8.105642E-3	8.827299E-3	-1.013123E+1	3.752832E-2	2.963800E-2	6.697081E-2	4.182269E-2
10/19/2017  17:43:57.435543	9.919759E-1	8.105642E-3	8.827299E-3	-1.013887E+1	2.987847E-2	2.455003E-2	6.951371E-2	2.147136E-2
10/19/2017  17:43:57.436543	-2.566821E+0	1.573716E-2	1.900811E-2	-1.014142E+1	1.457878E-2	6.742135E-3	7.968532E-2	2.401527E-2
10/19/2017  17:43:57.437543	-2.035543E+0	-9.701241E-3	1.900811E-2	-1.014651E+1	1.202884E-2	1.437409E-2	6.951371E-2	3.673486E-2
								
10/19/2017  17:43:57.438543	4.787178E+0	1.319332E-2	1.391770E-2	-1.013378E+1	2.477858E-2	1.946206E-2	6.697081E-2	3.164702E-2
10/19/2017  17:43:57.439543	3.506012E+0	1.064948E-2	1.646291E-2	-1.013378E+1	3.242842E-2	1.946206E-2	7.714242E-2	2.655919E-2
10/19/2017  17:43:57.440543	1.226127E-1	1.573716E-2	1.391770E-2	-1.012869E+1	2.222863E-2	2.200605E-2	7.459952E-2	3.673486E-2
10/19/2017  17:43:57.441543	-4.798695E+0	8.105642E-3	1.137250E-2	-1.014905E+1	2.477858E-2	1.946206E-2	5.679920E-2	3.673486E-2
10/19/2017  17:43:57.442543	-2.948121E+0	2.082484E-2	6.282096E-3	-1.014651E+1	1.457878E-2	2.455003E-2	7.968532E-2	2.655919E-2
10/19/2017  17:43:57.443543	-2.637997E+0	1.064948E-2	2.664372E-2	-1.014142E+1	1.712873E-2	1.183011E-2	7.968532E-2	4.182269E-2
10/19/2017  17:43:57.444543	-6.145667E-1	1.064948E-2	1.900811E-2	-1.013378E+1	2.732853E-2	2.455003E-2	5.934210E-2	2.910311E-2
10/19/2017  17:43:57.445543	5.623783E-1	1.319332E-2	1.137250E-2	-1.014142E+1	2.222863E-2	1.691808E-2	7.459952E-2	2.655919E-2
10/19/2017  17:43:57.446543	4.632404E-1	1.319332E-2	2.409852E-2	-1.014651E+1	1.457878E-2	1.183011E-2	7.205661E-2	3.927877E-2
10/19/2017  17:43:57.447543	-1.575442E+0	3.017961E-3	1.900811E-2	-1.012869E+1	3.242842E-2	1.691808E-2	6.951371E-2	3.419094E-2
10/19/2017  17:43:57.448543	-2.742219E+0	1.828100E-2	8.827299E-3	-1.014651E+1	2.732853E-2	3.472597E-2	6.697081E-2	2.655919E-2
10/19/2017  17:43:57.449543	-2.266865E+0	1.319332E-2	1.900811E-2	-1.014142E+1	1.457878E-2	1.691808E-2	7.714242E-2	3.164702E-2
10/19/2017  17:43:57.450543	-3.642086E+0	3.017961E-3	1.391770E-2	-1.013887E+1	2.477858E-2	1.691808E-2	6.188501E-2	3.164702E-2
10/19/2017  17:43:57.451543	2.395159E+0	1.319332E-2	3.427933E-2	-1.013378E+1	2.477858E-2	2.200605E-2	7.714242E-2	2.910311E-2
10/19/2017  17:43:57.452543	5.000706E+0	1.828100E-2	2.664372E-2	-1.012614E+1	1.457878E-2	1.946206E-2	8.222822E-2	3.164702E-2
10/19/2017  17:43:57.453543	5.242483E-1	8.105642E-3	-3.898717E-3	-1.011850E+1	2.477858E-2	1.946206E-2	7.205661E-2	3.673486E-2
10/19/2017  17:43:57.454543	-8.509724E-1	1.064948E-2	1.137250E-2	-1.014651E+1	2.222863E-2	2.963800E-2	6.697081E-2	2.147136E-2
10/19/2017  17:43:57.455543	1.322436E+0	1.828100E-2	2.664372E-2	-1.015160E+1	1.967868E-2	2.709402E-2	7.968532E-2	2.655919E-2
10/19/2017  17:43:57.456543	4.987996E+0	1.573716E-2	2.409852E-2	-1.012105E+1	2.732853E-2	1.437409E-2	7.459952E-2	3.927877E-2
10/19/2017  17:43:57.457543	5.003248E+0	1.064948E-2	1.137250E-2	-1.013632E+1	2.987847E-2	1.946206E-2	6.697081E-2	3.164702E-2
10/19/2017  17:43:57.458543	-3.248076E+0	5.561801E-3	1.900811E-2	-1.014142E+1	1.202884E-2	2.200605E-2	6.951371E-2	1.892744E-2
10/19/2017  17:43:57.459543	-4.933421E+0	1.064948E-2	1.646291E-2	-1.015415E+1	1.457878E-2	1.946206E-2	7.459952E-2	2.910311E-2
10/19/2017  17:43:57.460543	-4.946131E+0	1.319332E-2	1.900811E-2	-1.015415E+1	1.202884E-2	2.200605E-2	6.188501E-2	3.673486E-2
10/19/2017  17:43:57.461543	-3.596330E+0	1.828100E-2	2.409852E-2	-1.014142E+1	2.222863E-2	2.963800E-2	7.459952E-2	2.655919E-2
10/19/2017  17:43:57.462543	-1.809306E+0	1.319332E-2	1.391770E-2	-1.013887E+1	1.457878E-2	2.200605E-2	6.442791E-2	4.182269E-2
10/19/2017  17:43:57.463543	-1.740672E+0	1.064948E-2	1.900811E-2	-1.014651E+1	1.967868E-2	1.437409E-2	7.205661E-2	3.164702E-2
10/19/2017  17:43:57.464543	-1.977077E+0	1.573716E-2	1.900811E-2	-1.013887E+1	2.222863E-2	2.963800E-2	7.459952E-2	1.892744E-2
10/19/2017  17:43:57.465543	4.444009E+0	8.105642E-3	2.409852E-2	-1.012359E+1	1.457878E-2	2.455003E-2	8.731403E-2	3.927877E-2
10/19/2017  17:43:57.466543	4.993080E+0	1.064948E-2	1.391770E-2	-1.012869E+1	2.732853E-2	2.200605E-2	7.459952E-2	2.655919E-2
10/19/2017  17:43:57.467543	3.391622E+0	1.828100E-2	1.900811E-2	-1.014905E+1	2.222863E-2	2.709402E-2	6.442791E-2	3.164702E-2
10/19/2017  17:43:57.468543	4.987996E+0	3.017961E-3	1.900811E-2	-1.013123E+1	9.478889E-3	2.200605E-2	7.968532E-2	3.164702E-2
10/19/2017  17:43:57.469543	7.072721E-1	8.105642E-3	1.137250E-2	-1.013123E+1	2.732853E-2	1.437409E-2	7.205661E-2	3.927877E-2
10/19/2017  17:43:57.470543	-4.941047E+0	2.336868E-2	1.900811E-2	-1.015415E+1	2.732853E-2	2.963800E-2	6.951371E-2	2.401527E-2
								
10/19/2017  17:43:57.471543	-4.864787E+0	1.319332E-2	2.155331E-2	-1.015160E+1	1.457878E-2	1.946206E-2	7.968532E-2	3.673486E-2
10/19/2017  17:43:57.472543	1.996065E+0	8.105642E-3	1.191689E-3	-1.013632E+1	1.967868E-2	1.691808E-2	6.697081E-2	2.655919E-2
10/19/2017  17:43:57.473543	5.000706E+0	2.082484E-2	1.646291E-2	-1.012869E+1	2.477858E-2	2.963800E-2	7.714242E-2	3.164702E-2
10/19/2017  17:43:57.474543	5.010874E+0	1.319332E-2	2.409852E-2	-1.012105E+1	1.712873E-2	3.472597E-2	7.205661E-2	2.910311E-2
10/19/2017  17:43:57.475543	-2.238903E+0	4.741205E-4	1.646291E-2	-1.013123E+1	2.477858E-2	2.455003E-2	7.714242E-2	2.910311E-2
10/19/2017  17:43:57.476543	-6.171087E-1	1.064948E-2	1.900811E-2	-1.014905E+1	2.222863E-2	1.691808E-2	7.205661E-2	2.147136E-2
10/19/2017  17:43:57.477543	-1.577984E+0	-4.613560E-3	2.155331E-2	-1.015160E+1	4.378993E-3	2.455003E-2	7.714242E-2	2.910311E-2
10/19/2017  17:43:57.478543	-1.781344E+0	8.105642E-3	1.646291E-2	-1.013887E+1	1.457878E-2	2.200605E-2	7.968532E-2	3.164702E-2
10/19/2017  17:43:57.479543	-2.027630E-1	1.828100E-2	1.900811E-2	-1.014142E+1	3.497837E-2	2.455003E-2	7.714242E-2	3.164702E-2
10/19/2017  17:43:57.480543	-5.433907E-1	1.319332E-2	2.918892E-2	-1.013123E+1	1.457878E-2	1.437409E-2	8.222822E-2	3.419094E-2
10/19/2017  17:43:57.481543	-1.260234E+0	1.064948E-2	1.137250E-2	-1.013887E+1	1.967868E-2	2.455003E-2	6.442791E-2	2.401527E-2
10/19/2017  17:43:57.482543	-3.321794E+0	8.105642E-3	1.137250E-2	-1.013123E+1	2.222863E-2	2.709402E-2	7.459952E-2	3.164702E-2
10/19/2017  17:43:57.483543	-4.602961E+0	8.105642E-3	1.900811E-2	-1.013632E+1	2.477858E-2	1.437409E-2	7.205661E-2	5.199836E-2
10/19/2017  17:43:57.484543	-3.354840E+0	1.828100E-2	1.137250E-2	-1.015924E+1	2.987847E-2	2.963800E-2	7.205661E-2	3.164702E-2
10/19/2017  17:43:57.485543	2.179089E+0	8.105642E-3	1.900811E-2	-1.013887E+1	1.457878E-2	1.946206E-2	8.222822E-2	2.910311E-2
10/19/2017  17:43:57.486543	4.835476E+0	8.105642E-3	1.900811E-2	-1.013887E+1	2.477858E-2	6.742135E-3	7.205661E-2	3.673486E-2
10/19/2017  17:43:57.487543	4.977828E+0	2.336868E-2	3.736893E-3	-1.013123E+1	2.477858E-2	1.946206E-2	7.205661E-2	2.401527E-2
10/19/2017  17:43:57.488543	3.798341E+0	1.319332E-2	2.409852E-2	-1.013632E+1	1.457878E-2	3.218199E-2	8.985693E-2	3.164702E-2
10/19/2017  17:43:57.489543	2.232471E+0	1.319332E-2	1.646291E-2	-1.013378E+1	2.222863E-2	1.183011E-2	7.205661E-2	3.673486E-2
10/19/2017  17:43:57.490543	1.734239E+0	2.336868E-2	1.646291E-2	-1.014905E+1	2.477858E-2	2.963800E-2	6.188501E-2	2.401527E-2
10/19/2017  17:43:57.491543	-2.866777E+0	1.573716E-2	1.137250E-2	-1.014142E+1	1.457878E-2	2.709402E-2	8.222822E-2	3.164702E-2
10/19/2017  17:43:57.492543	-4.941047E+0	1.064948E-2	1.391770E-2	-1.014142E+1	2.477858E-2	1.437409E-2	7.714242E-2	2.910311E-2
10/19/2017  17:43:57.493543	-4.697015E+0	1.319332E-2	1.137250E-2	-1.015415E+1	3.242842E-2	2.963800E-2	7.459952E-2	3.419094E-2
10/19/2017  17:43:57.494543	-2.602409E+0	4.741205E-4	1.646291E-2	-1.015669E+1	1.712873E-2	2.200605E-2	7.205661E-2	3.419094E-2
10/19/2017  17:43:57.495543	1.607426E-1	8.105642E-3	1.391770E-2	-1.013378E+1	2.477858E-2	6.742135E-3	7.205661E-2	2.401527E-2
10/19/2017  17:43:57.496543	2.725618E+0	3.100021E-2	1.137250E-2	-1.013632E+1	1.967868E-2	2.963800E-2	6.442791E-2	2.910311E-2
10/19/2017  17:43:57.497543	3.411958E+0	1.319332E-2	2.155331E-2	-1.012869E+1	1.457878E-2	1.946206E-2	7.459952E-2	3.164702E-2
10/19/2017  17:43:57.498543	8.194071E-2	4.741205E-4	1.900811E-2	-1.013887E+1	1.967868E-2	1.437409E-2	7.459952E-2	2.910311E-2
10/19/2017  17:43:57.499543	-3.931874E+0	1.319332E-2	1.391770E-2	-1.014651E+1	2.222863E-2	2.200605E-2	7.459952E-2	2.655919E-2
10/19/2017  17:43:57.500543	-4.951215E+0	1.319332E-2	2.409852E-2	-1.012869E+1	2.987847E-2	2.455003E-2	7.968532E-2	3.419094E-2
10/19/2017  17:43:57.501543	-4.674137E+0	8.105642E-3	2.155331E-2	-1.012614E+1	1.712873E-2	2.200605E-2	7.968532E-2	3.419094E-2
10/19/2017  17:43:57.502543	-1.519231E-1	1.573716E-2	1.391770E-2	-1.013887E+1	1.457878E-2	2.200605E-2	7.714242E-2	1.638352E-2
10/19/2017  17:43:57.503543	4.990538E+0	1.064948E-2	1.900811E-2	-1.013887E+1	1.202884E-2	1.691808E-2	7.968532E-2	2.910311E-2
								
10/19/2017  17:43:57.504543	5.005790E+0	3.017961E-3	1.900811E-2	-1.012359E+1	2.222863E-2	1.691808E-2	7.459952E-2	4.182269E-2
10/19/2017  17:43:57.505543	1.813041E+0	1.064948E-2	1.900811E-2	-1.013632E+1	1.967868E-2	2.200605E-2	6.697081E-2	2.147136E-2
10/19/2017  17:43:57.506543	5.395003E-1	2.336868E-2	1.900811E-2	-1.014142E+1	1.202884E-2	2.963800E-2	7.459952E-2	2.910311E-2
10/19/2017  17:43:57.507543	8.369140E-1	5.561801E-3	1.900811E-2	-1.015160E+1	2.222863E-2	9.286120E-3	7.205661E-2	3.419094E-2
10/19/2017  17:43:57.508543	5.954242E-1	3.017961E-3	1.391770E-2	-1.014142E+1	2.477858E-2	2.455003E-2	6.697081E-2	3.164702E-2
10/19/2017  17:43:57.509543	1.378647E-1	2.082484E-2	1.391770E-2	-1.014142E+1	2.477858E-2	2.455003E-2	8.477112E-2	3.164702E-2
10/19/2017  17:43:57.510543	3.783089E+0	1.319332E-2	4.191494E-2	-1.013887E+1	1.967868E-2	2.709402E-2	7.714242E-2	3.164702E-2
10/19/2017  17:43:57.511543	2.784084E+0	5.561801E-3	1.646291E-2	-1.012614E+1	1.712873E-2	1.946206E-2	7.205661E-2	2.910311E-2
10/19/2017  17:43:57.512543	6.742262E-1	1.319332E-2	6.282096E-3	-1.013887E+1	1.457878E-2	1.691808E-2	7.459952E-2	2.147136E-2
10/19/2017  17:43:57.513543	1.238550E+0	1.064948E-2	1.646291E-2	-1.013887E+1	1.967868E-2	1.946206E-2	8.222822E-2	3.419094E-2
10/19/2017  17:43:57.514543	-2.022833E+0	8.105642E-3	1.900811E-2	-1.013887E+1	2.222863E-2	2.709402E-2	7.205661E-2	4.436661E-2
10/19/2017  17:43:57.515543	-4.742771E+0	5.561801E-3	8.827299E-3	-1.014651E+1	2.222863E-2	2.200605E-2	6.951371E-2	2.910311E-2
10/19/2017  17:43:57.516543	-2.815937E+0	2.082484E-2	1.646291E-2	-1.015160E+1	2.222863E-2	9.286120E-3	7.714242E-2	1.892744E-2
10/19/2017  17:43:57.517543	2.217506E-1	1.319332E-2	2.664372E-2	-1.014905E+1	1.712873E-2	1.946206E-2	7.968532E-2	3.419094E-2
10/19/2017  17:43:57.518543	-1.442971E-1	3.017961E-3	1.900811E-2	-1.012869E+1	2.222863E-2	1.946206E-2	7.714242E-2	3.927877E-2
10/19/2017  17:43:57.519543	-5.789787E-1	1.319332E-2	8.827299E-3	-1.013378E+1	4.262821E-2	1.946206E-2	7.205661E-2	2.401527E-2
10/19/2017  17:43:57.520543	-4.798408E-1	2.082484E-2	1.646291E-2	-1.014396E+1	1.967868E-2	1.437409E-2	6.951371E-2	3.164702E-2
10/19/2017  17:43:57.521543	3.539345E-1	8.105642E-3	2.155331E-2	-1.013123E+1	1.202884E-2	1.691808E-2	7.205661E-2	3.419094E-2
10/19/2017  17:43:57.522543	1.589345E+0	8.105642E-3	1.646291E-2	-1.013123E+1	2.732853E-2	2.455003E-2	6.951371E-2	2.910311E-2
10/19/2017  17:43:57.523543	-1.079752E+0	2.082484E-2	1.137250E-2	-1.014651E+1	2.477858E-2	2.963800E-2	7.968532E-2	2.147136E-2
10/19/2017  17:43:57.524543	-1.771176E+0	1.319332E-2	2.664372E-2	-1.014905E+1	1.712873E-2	1.946206E-2	7.968532E-2	3.673486E-2
10/19/2017  17:43:57.525543	-1.679664E+0	3.017961E-3	1.391770E-2	-1.013632E+1	1.967868E-2	1.437409E-2	6.951371E-2	2.147136E-2
10/19/2017  17:43:57.526543	1.037732E+0	1.319332E-2	1.646291E-2	-1.015924E+1	2.477858E-2	1.437409E-2	7.714242E-2	2.655919E-2
10/19/2017  17:43:57.527543	3.193346E+0	1.828100E-2	2.918892E-2	-1.013632E+1	1.967868E-2	2.200605E-2	7.968532E-2	3.419094E-2
10/19/2017  17:43:57.528543	2.888306E+0	5.561801E-3	1.391770E-2	-1.012614E+1	1.967868E-2	1.946206E-2	8.222822E-2	3.164702E-2
10/19/2017  17:43:57.529543	4.039831E+0	2.591253E-2	1.900811E-2	-1.013632E+1	1.457878E-2	1.946206E-2	7.459952E-2	2.401527E-2
10/19/2017  17:43:57.530543	8.547080E-1	1.064948E-2	2.409852E-2	-1.013887E+1	1.457878E-2	2.200605E-2	7.205661E-2	2.910311E-2
10/19/2017  17:43:57.531543	-1.893192E+0	1.828100E-2	2.409852E-2	-1.013632E+1	2.477858E-2	2.709402E-2	7.459952E-2	3.164702E-2
10/19/2017  17:43:57.532543	-1.672038E+0	1.828100E-2	1.900811E-2	-1.013887E+1	2.477858E-2	2.455003E-2	7.205661E-2	2.401527E-2
10/19/2017  17:43:57.533543	6.132182E-1	1.319332E-2	1.900811E-2	-1.014142E+1	2.477858E-2	9.286120E-3	7.714242E-2	3.419094E-2
10/19/2017  17:43:57.534543	-7.823385E-1	-9.701241E-3	1.391770E-2	-1.013378E+1	1.457878E-2	2.200605E-2	7.205661E-2	3.419094E-2
10/19/2017  17:43:57.535543	1.937886E-1	2.082484E-2	2.155331E-2	-1.013887E+1	2.222863E-2	3.472597E-2	7.459952E-2	2.401527E-2
10/19/2017  17:43:57.536543	2.583266E+0	2.591253E-2	1.391770E-2	-1.013632E+1	2.222863E-2	1.691808E-2	8.222822E-2	3.673486E-2
								
10/19/2017  17:43:57.537543	1.973187E+0	1.064948E-2	8.827299E-3	-1.013632E+1	2.222863E-2	1.946206E-2	6.697081E-2	3.927877E-2
10/19/2017  17:43:57.538543	2.410411E+0	1.828100E-2	1.391770E-2	-1.015160E+1	1.712873E-2	1.946206E-2	7.205661E-2	2.655919E-2
10/19/2017  17:43:57.539543	-1.900817E+0	8.105642E-3	1.900811E-2	-1.012869E+1	1.967868E-2	1.437409E-2	7.714242E-2	3.419094E-2
10/19/2017  17:43:57.540543	-4.417395E+0	1.573716E-2	1.391770E-2	-1.014651E+1	4.262821E-2	2.963800E-2	6.697081E-2	2.401527E-2
10/19/2017  17:43:57.541543	-2.909991E+0	1.064948E-2	2.664372E-2	-1.014905E+1	1.712873E-2	1.946206E-2	7.459952E-2	3.164702E-2
10/19/2017  17:43:57.542543	-9.856983E-1	8.105642E-3	1.391770E-2	-1.013632E+1	1.967868E-2	1.437409E-2	6.188501E-2	2.401527E-2
10/19/2017  17:43:57.543543	1.180084E+0	2.082484E-2	1.391770E-2	-1.014142E+1	1.967868E-2	1.946206E-2	7.714242E-2	2.147136E-2
10/19/2017  17:43:57.544543	8.140360E-1	1.319332E-2	1.646291E-2	-1.013378E+1	1.712873E-2	1.437409E-2	7.968532E-2	4.691052E-2
10/19/2017  17:43:57.545543	2.944230E+0	1.064948E-2	1.900811E-2	-1.011596E+1	2.477858E-2	2.455003E-2	6.697081E-2	3.164702E-2
10/19/2017  17:43:57.546543	9.030060E-1	2.336868E-2	1.391770E-2	-1.013123E+1	1.712873E-2	2.200605E-2	7.205661E-2	2.147136E-2
10/19/2017  17:43:57.547543	-7.365826E-1	1.064948E-2	2.155331E-2	-1.013887E+1	2.477858E-2	2.455003E-2	6.951371E-2	3.419094E-2
10/19/2017  17:43:57.548543	-7.264146E-1	1.064948E-2	1.646291E-2	-1.013887E+1	2.987847E-2	2.455003E-2	6.951371E-2	2.147136E-2
10/19/2017  17:43:57.549543	7.479441E-1	2.336868E-2	1.391770E-2	-1.014651E+1	1.457878E-2	2.963800E-2	7.714242E-2	2.147136E-2
10/19/2017  17:43:57.550543	-1.603404E+0	1.064948E-2	8.827299E-3	-1.013378E+1	2.477858E-2	9.286120E-3	7.459952E-2	2.910311E-2
10/19/2017  17:43:57.551543	4.479884E-1	5.561801E-3	1.646291E-2	-1.013123E+1	2.477858E-2	1.946206E-2	6.442791E-2	2.910311E-2
10/19/2017  17:43:57.552543	1.302100E+0	1.573716E-2	1.646291E-2	-1.013632E+1	4.378993E-3	1.946206E-2	7.714242E-2	2.655919E-2
10/19/2017  17:43:57.553543	3.462798E+0	5.561801E-3	1.900811E-2	-1.013123E+1	2.477858E-2	1.437409E-2	6.697081E-2	3.673486E-2
10/19/2017  17:43:57.554543	2.654442E+0	1.573716E-2	1.646291E-2	-1.014142E+1	3.242842E-2	4.490191E-2	7.205661E-2	3.164702E-2
10/19/2017  17:43:57.555543	7.631961E-1	2.845637E-2	2.664372E-2	-1.013632E+1	1.967868E-2	1.691808E-2	8.222822E-2	3.673486E-2
10/19/2017  17:43:57.556543	-3.141312E+0	1.319332E-2	1.137250E-2	-1.014651E+1	2.987847E-2	1.183011E-2	6.951371E-2	2.147136E-2
10/19/2017  17:43:57.557543	-4.941047E+0	2.082484E-2	1.646291E-2	-1.014651E+1	2.732853E-2	1.946206E-2	7.205661E-2	2.910311E-2
10/19/2017  17:43:57.558543	-4.681763E+0	8.105642E-3	2.155331E-2	-1.014142E+1	2.477858E-2	1.691808E-2	7.459952E-2	3.927877E-2
10/19/2017  17:43:57.559543	-2.002497E+0	1.064948E-2	1.137250E-2	-1.014651E+1	3.242842E-2	2.963800E-2	7.205661E-2	1.638352E-2
10/19/2017  17:43:57.560543	-9.297744E-1	1.319332E-2	2.409852E-2	-1.013887E+1	1.457878E-2	1.691808E-2	8.222822E-2	3.164702E-2
10/19/2017  17:43:57.561543	-2.536030E-1	1.319332E-2	1.900811E-2	-1.013378E+1	9.478889E-3	1.437409E-2	6.442791E-2	3.419094E-2
10/19/2017  17:43:57.562543	9.385939E-1	2.082484E-2	2.664372E-2	-1.013378E+1	2.477858E-2	2.963800E-2	7.714242E-2	2.401527E-2
10/19/2017  17:43:57.563543	1.660521E+0	8.105642E-3	2.664372E-2	-1.013123E+1	1.712873E-2	1.691808E-2	7.968532E-2	4.436661E-2
10/19/2017  17:43:57.564543	2.562930E+0	1.319332E-2	1.137250E-2	-1.013378E+1	2.477858E-2	1.946206E-2	6.697081E-2	3.164702E-2
10/19/2017  17:43:57.565543	6.920202E-1	8.105642E-3	1.646291E-2	-1.013632E+1	2.222863E-2	1.946206E-2	8.222822E-2	4.182269E-2
10/19/2017  17:43:57.566543	-4.938505E+0	5.561801E-3	1.646291E-2	-1.011850E+1	2.477858E-2	1.437409E-2	7.968532E-2	3.927877E-2
10/19/2017  17:43:57.567543	-4.925795E+0	2.082484E-2	1.900811E-2	-1.016178E+1	2.987847E-2	2.455003E-2	6.951371E-2	2.655919E-2
10/19/2017  17:43:57.568543	-2.505813E+0	1.064948E-2	2.409852E-2	-1.014396E+1	1.202884E-2	2.963800E-2	7.205661E-2	3.164702E-2
10/19/2017  17:43:57.569543	1.429199E+0	3.017961E-3	6.282096E-3	-1.014142E+1	1.967868E-2	2.200605E-2	7.459952E-2	3.164702E-2
								
10/19/2017  17:43:57.570543	4.954950E+0	2.082484E-2	1.900811E-2	-1.013378E+1	2.477858E-2	2.963800E-2	7.205661E-2	2.147136E-2
10/19/2017  17:43:57.571543	4.187267E+0	1.319332E-2	2.918892E-2	-1.012359E+1	1.712873E-2	1.946206E-2	7.968532E-2	4.182269E-2
10/19/2017  17:43:57.572543	3.114544E+0	1.064948E-2	1.137250E-2	-1.013123E+1	2.477858E-2	1.946206E-2	6.951371E-2	2.910311E-2
10/19/2017  17:43:57.573543	1.759659E+0	1.828100E-2	2.664372E-2	-1.014905E+1	6.928941E-3	1.946206E-2	7.205661E-2	2.147136E-2
10/19/2017  17:43:57.574543	5.979662E-1	1.573716E-2	1.900811E-2	-1.013632E+1	2.222863E-2	1.437409E-2	7.205661E-2	3.673486E-2
10/19/2017  17:43:57.575543	1.045358E+0	1.064948E-2	1.137250E-2	-1.013632E+1	2.477858E-2	2.200605E-2	6.951371E-2	2.401527E-2
10/19/2017  17:43:57.576543	3.488505E-1	4.741205E-4	1.391770E-2	-1.013378E+1	2.477858E-2	1.946206E-2	7.205661E-2	2.910311E-2
10/19/2017  17:43:57.577543	-7.874225E-1	4.741205E-4	1.391770E-2	-1.013632E+1	1.967868E-2	6.742135E-3	7.459952E-2	3.673486E-2
10/19/2017  17:43:57.578543	-1.445800E+0	-2.069720E-3	1.391770E-2	-1.015669E+1	1.712873E-2	2.709402E-2	6.442791E-2	2.655919E-2
10/19/2017  17:43:57.579543	-8.433465E-1	1.828100E-2	2.664372E-2	-1.015415E+1	1.457878E-2	2.455003E-2	8.222822E-2	3.419094E-2
10/19/2017  17:43:57.580543	5.979662E-1	8.105642E-3	1.391770E-2	-1.012105E+1	3.497837E-2	1.691808E-2	8.222822E-2	4.182269E-2
10/19/2017  17:43:57.581543	2.529884E+0	1.064948E-2	1.137250E-2	-1.013887E+1	2.987847E-2	1.946206E-2	6.697081E-2	3.164702E-2
10/19/2017  17:43:57.582543	2.921352E+0	1.828100E-2	1.646291E-2	-1.013887E+1	9.478889E-3	2.200605E-2	7.205661E-2	3.927877E-2
10/19/2017  17:43:57.583543	3.010322E+0	1.319332E-2	1.900811E-2	-1.013887E+1	2.222863E-2	1.691808E-2	7.968532E-2	3.673486E-2
10/19/2017  17:43:57.584543	4.926988E+0	2.082484E-2	1.137250E-2	-1.013632E+1	2.987847E-2	2.455003E-2	6.951371E-2	2.655919E-2
10/19/2017  17:43:57.585543	3.925441E+0	1.064948E-2	2.918892E-2	-1.012614E+1	1.967868E-2	2.709402E-2	7.714242E-2	3.164702E-2
10/19/2017  17:43:57.586543	-4.808863E+0	8.105642E-3	1.137250E-2	-1.013887E+1	1.712873E-2	1.183011E-2	7.459952E-2	1.383961E-2
10/19/2017  17:43:57.587543	-4.910543E+0	1.064948E-2	1.646291E-2	-1.015415E+1	2.222863E-2	1.183011E-2	7.459952E-2	2.401527E-2
10/19/2017  17:43:57.588543	-7.289566E-1	1.064948E-2	2.664372E-2	-1.014142E+1	1.712873E-2	2.455003E-2	8.222822E-2	3.419094E-2
10/19/2017  17:43:57.589543	-1.194142E+0	8.105642E-3	8.827299E-3	-1.013378E+1	2.477858E-2	1.946206E-2	6.697081E-2	2.910311E-2
10/19/2017  17:43:57.590543	-4.061516E+0	1.573716E-2	8.827299E-3	-1.014651E+1	1.967868E-2	2.709402E-2	7.205661E-2	2.910311E-2
10/19/2017  17:43:57.591543	-4.941047E+0	1.064948E-2	1.646291E-2	-1.014905E+1	2.477858E-2	2.200605E-2	7.459952E-2	3.419094E-2
10/19/2017  17:43:57.592543	-2.299911E+0	1.319332E-2	2.664372E-2	-1.014651E+1	2.477858E-2	2.709402E-2	7.459952E-2	2.910311E-2
10/19/2017  17:43:57.593543	3.541600E+0	1.828100E-2	1.646291E-2	-1.013378E+1	1.712873E-2	1.946206E-2	8.222822E-2	2.910311E-2
10/19/2017  17:43:57.594543	1.927431E+0	3.017961E-3	1.137250E-2	-1.012359E+1	2.477858E-2	2.963800E-2	6.697081E-2	4.182269E-2
10/19/2017  17:43:57.595543	4.482139E+0	8.105642E-3	1.646291E-2	-1.013378E+1	1.712873E-2	3.218199E-2	7.459952E-2	1.892744E-2
10/19/2017  17:43:57.596543	4.977828E+0	1.319332E-2	2.155331E-2	-1.013632E+1	1.457878E-2	1.183011E-2	7.459952E-2	2.147136E-2
10/19/2017  17:43:57.597543	2.471706E-1	2.082484E-2	1.900811E-2	-1.013887E+1	3.242842E-2	1.183011E-2	6.951371E-2	3.419094E-2
10/19/2017  17:43:57.598543	-3.347214E+0	1.573716E-2	1.900811E-2	-1.014905E+1	2.222863E-2	2.963800E-2	7.205661E-2	3.164702E-2
10/19/2017  17:43:57.599543	1.025022E+0	1.319332E-2	1.900811E-2	-1.013632E+1	1.712873E-2	1.691808E-2	8.731403E-2	3.673486E-2
10/19/2017  17:43:57.600543	2.410411E+0	1.319332E-2	1.137250E-2	-1.014142E+1	2.732853E-2	1.946206E-2	6.951371E-2	3.164702E-2
10/19/2017  17:43:57.601543	5.906273E-2	1.573716E-2	2.409852E-2	-1.013887E+1	9.478889E-3	2.963800E-2	8.222822E-2	2.655919E-2
10/19/2017  17:43:57.602543	-2.078470E-1	5.561801E-3	1.900811E-2	-1.011850E+1	2.222863E-2	1.691808E-2	7.205661E-2	3.419094E-2
								
10/19/2017  17:43:57.603543	-2.648165E+0	1.319332E-2	1.137250E-2	-1.013887E+1	2.477858E-2	2.455003E-2	7.205661E-2	1.638352E-2
10/19/2017  17:43:57.604543	-4.915627E+0	1.828100E-2	1.391770E-2	-1.014396E+1	1.967868E-2	1.946206E-2	7.459952E-2	3.164702E-2
10/19/2017  17:43:57.605543	-4.196241E+0	3.017961E-3	1.391770E-2	-1.014142E+1	2.222863E-2	1.183011E-2	7.459952E-2	2.401527E-2
10/19/2017  17:43:57.606543	-3.413306E+0	2.082484E-2	1.137250E-2	-1.013378E+1	2.732853E-2	2.963800E-2	7.205661E-2	2.655919E-2
10/19/2017  17:43:57.607543	-1.715252E+0	1.828100E-2	1.900811E-2	-1.013632E+1	1.712873E-2	1.437409E-2	7.968532E-2	3.164702E-2
10/19/2017  17:43:57.608543	-7.975905E-1	4.741205E-4	1.137250E-2	-1.013378E+1	2.987847E-2	2.200605E-2	6.697081E-2	3.419094E-2
10/19/2017  17:43:57.609543	3.742704E-1	8.105642E-3	1.137250E-2	-1.014396E+1	2.222863E-2	2.963800E-2	7.205661E-2	2.401527E-2
10/19/2017  17:43:57.610543	5.217063E-1	1.828100E-2	2.409852E-2	-1.013123E+1	1.712873E-2	1.691808E-2	7.968532E-2	3.673486E-2
10/19/2017  17:43:57.611543	3.778005E+0	1.319332E-2	2.664372E-2	-1.013632E+1	3.752832E-2	2.963800E-2	6.697081E-2	3.673486E-2
10/19/2017  17:43:57.612543	3.254354E+0	2.336868E-2	1.900811E-2	-1.013632E+1	2.222863E-2	2.200605E-2	7.205661E-2	3.164702E-2
10/19/2017  17:43:57.613543	1.548673E+0	3.017961E-3	1.137250E-2	-1.013123E+1	1.457878E-2	9.286120E-3	7.459952E-2	3.673486E-2
10/19/2017  17:43:57.614543	9.614719E-1	1.064948E-2	1.137250E-2	-1.014651E+1	2.732853E-2	1.946206E-2	6.951371E-2	2.910311E-2
10/19/2017  17:43:57.615543	7.555701E-1	1.064948E-2	2.664372E-2	-1.013887E+1	1.457878E-2	2.963800E-2	8.222822E-2	3.419094E-2
10/19/2017  17:43:57.616543	4.581564E-1	1.064948E-2	1.900811E-2	-1.013632E+1	1.712873E-2	2.200605E-2	7.459952E-2	3.164702E-2
10/19/2017  17:43:57.617543	3.872675E-2	2.082484E-2	1.391770E-2	-1.014142E+1	2.222863E-2	1.437409E-2	7.714242E-2	3.164702E-2
10/19/2017  17:43:57.618543	8.222774E-3	1.573716E-2	2.664372E-2	-1.013887E+1	6.928941E-3	1.946206E-2	7.714242E-2	3.927877E-2
10/19/2017  17:43:57.619543	1.429487E-1	8.105642E-3	1.646291E-2	-1.012869E+1	2.987847E-2	1.437409E-2	6.697081E-2	3.419094E-2
10/19/2017  17:43:57.620543	7.431471E-2	1.319332E-2	1.391770E-2	-1.014142E+1	3.497837E-2	2.455003E-2	6.951371E-2	2.401527E-2
10/19/2017  17:43:57.621543	9.818079E-1	1.573716E-2	2.155331E-2	-1.013632E+1	1.457878E-2	1.691808E-2	7.968532E-2	3.164702E-2
10/19/2017  17:43:57.622543	1.744407E+0	3.017961E-3	1.646291E-2	-1.013632E+1	9.478889E-3	1.946206E-2	6.697081E-2	3.419094E-2
10/19/2017  17:43:57.623543	1.086030E+0	1.319332E-2	2.155331E-2	-1.013887E+1	1.967868E-2	1.946206E-2	7.205661E-2	3.164702E-2
10/19/2017  17:43:57.624543	-2.808311E+0	1.573716E-2	2.155331E-2	-1.014651E+1	1.712873E-2	2.200605E-2	8.222822E-2	3.419094E-2
10/19/2017  17:43:57.625543	-4.160653E+0	8.105642E-3	8.827299E-3	-1.013378E+1	2.732853E-2	1.946206E-2	6.951371E-2	3.673486E-2
10/19/2017  17:43:57.626543	-2.665959E+0	1.828100E-2	1.900811E-2	-1.014142E+1	1.967868E-2	1.691808E-2	7.459952E-2	1.129569E-2
10/19/2017  17:43:57.627543	-4.086648E-1	1.319332E-2	2.409852E-2	-1.015669E+1	1.712873E-2	1.183011E-2	7.968532E-2	2.910311E-2
10/19/2017  17:43:57.628543	3.793257E+0	2.082484E-2	1.900811E-2	-1.013378E+1	1.967868E-2	2.455003E-2	7.459952E-2	3.164702E-2
10/19/2017  17:43:57.629543	4.426215E+0	1.064948E-2	1.900811E-2	-1.012869E+1	2.222863E-2	2.200605E-2	8.222822E-2	2.655919E-2
10/19/2017  17:43:57.630543	2.351945E+0	1.573716E-2	2.918892E-2	-1.013632E+1	1.712873E-2	2.200605E-2	8.222822E-2	3.419094E-2
10/19/2017  17:43:57.631543	9.919759E-1	5.561801E-3	1.900811E-2	-1.013887E+1	1.967868E-2	1.691808E-2	7.205661E-2	3.927877E-2
10/19/2017  17:43:57.632543	-8.840184E-1	1.828100E-2	1.137250E-2	-1.014396E+1	2.222863E-2	3.472597E-2	6.951371E-2	2.910311E-2
10/19/2017  17:43:57.633543	-1.471220E+0	1.573716E-2	2.664372E-2	-1.014396E+1	1.967868E-2	1.437409E-2	7.459952E-2	3.164702E-2
10/19/2017  17:43:57.634543	-8.789344E-1	1.319332E-2	1.646291E-2	-1.013632E+1	2.222863E-2	2.455003E-2	7.205661E-2	3.164702E-2
10/19/2017  17:43:57.635543	-1.824271E-1	8.105642E-3	1.646291E-2	-1.013378E+1	1.712873E-2	1.946206E-2	7.459952E-2	2.401527E-2
								
10/19/2017  17:43:57.636543	1.582006E-1	1.319332E-2	1.900811E-2	-1.013632E+1	2.222863E-2	1.946206E-2	7.459952E-2	2.655919E-2
10/19/2017  17:43:57.637543	-1.620911E-1	1.319332E-2	1.646291E-2	-1.013632E+1	2.477858E-2	1.691808E-2	7.459952E-2	3.673486E-2
10/19/2017  17:43:57.638543	2.855260E+0	1.064948E-2	1.391770E-2	-1.013378E+1	1.967868E-2	2.200605E-2	7.205661E-2	3.164702E-2
10/19/2017  17:43:57.639543	1.134328E+0	-2.069720E-3	1.900811E-2	-1.013887E+1	2.732853E-2	2.200605E-2	7.714242E-2	2.401527E-2
10/19/2017  17:43:57.640543	-1.074668E+0	5.561801E-3	1.646291E-2	-1.012869E+1	1.967868E-2	9.286120E-3	7.205661E-2	3.927877E-2
10/19/2017  17:43:57.641543	-1.313616E+0	1.064948E-2	1.391770E-2	-1.014142E+1	3.242842E-2	2.200605E-2	7.714242E-2	3.673486E-2
10/19/2017  17:43:57.642543	-1.565274E+0	1.828100E-2	2.155331E-2	-1.014142E+1	2.222863E-2	2.963800E-2	7.714242E-2	3.164702E-2
10/19/2017  17:43:57.643543	-1.941489E+0	1.828100E-2	1.391770E-2	-1.013887E+1	1.967868E-2	2.200605E-2	7.968532E-2	2.910311E-2
10/19/2017  17:43:57.644543	-1.908443E+0	1.319332E-2	1.191689E-3	-1.014905E+1	2.477858E-2	1.691808E-2	6.442791E-2	3.164702E-2
10/19/2017  17:43:57.645543	-2.144849E+0	1.319332E-2	1.900811E-2	-1.015160E+1	1.967868E-2	2.963800E-2	7.205661E-2	1.638352E-2
10/19/2017  17:43:57.646543	-4.442528E-1	1.828100E-2	2.155331E-2	-1.014651E+1	1.457878E-2	1.946206E-2	7.968532E-2	3.927877E-2
10/19/2017  17:43:57.647543	4.718545E+0	8.105642E-3	1.137250E-2	-1.012614E+1	2.222863E-2	1.946206E-2	6.697081E-2	3.927877E-2
10/19/2017  17:43:57.648543	-1.176348E+0	1.319332E-2	1.900811E-2	-1.013123E+1	2.222863E-2	2.709402E-2	6.951371E-2	2.401527E-2
10/19/2017  17:43:57.649543	-4.076768E+0	8.105642E-3	2.155331E-2	-1.013632E+1	1.457878E-2	2.455003E-2	8.222822E-2	2.910311E-2
10/19/2017  17:43:57.650543	3.701745E+0	1.064948E-2	1.900811E-2	-1.013378E+1	2.477858E-2	1.183011E-2	7.968532E-2	3.673486E-2
10/19/2017  17:43:57.651543	5.010874E+0	2.591253E-2	2.664372E-2	-1.013887E+1	2.477858E-2	2.963800E-2	6.951371E-2	2.401527E-2
10/19/2017  17:43:57.652543	4.982912E+0	1.064948E-2	2.409852E-2	-1.012614E+1	1.202884E-2	2.455003E-2	7.968532E-2	3.164702E-2
10/19/2017  17:43:57.653543	1.162290E+0	8.105642E-3	1.137250E-2	-1.012869E+1	2.222863E-2	6.742135E-3	7.459952E-2	2.910311E-2
10/19/2017  17:43:57.654543	5.143673E-2	4.741205E-4	1.391770E-2	-1.014651E+1	2.222863E-2	2.200605E-2	6.697081E-2	2.910311E-2
10/19/2017  17:43:57.655543	2.133333E+0	1.828100E-2	2.664372E-2	-1.014905E+1	1.712873E-2	1.691808E-2	7.714242E-2	1.892744E-2
10/19/2017  17:43:57.656543	-4.925508E-1	5.561801E-3	2.664372E-2	-1.013123E+1	1.967868E-2	1.437409E-2	7.968532E-2	3.419094E-2
10/19/2017  17:43:57.657543	-3.070136E+0	5.561801E-3	1.137250E-2	-1.014142E+1	2.477858E-2	1.183011E-2	6.951371E-2	3.164702E-2
10/19/2017  17:43:57.658543	-1.059416E+0	5.561801E-3	2.409852E-2	-1.014651E+1	1.457878E-2	2.963800E-2	6.951371E-2	2.147136E-2
10/19/2017  17:43:57.659543	-8.382625E-1	1.319332E-2	2.155331E-2	-1.013378E+1	1.457878E-2	1.946206E-2	8.222822E-2	3.164702E-2
10/19/2017  17:43:57.660543	-2.765097E+0	8.105642E-3	2.155331E-2	-1.013123E+1	3.497837E-2	1.691808E-2	7.205661E-2	4.182269E-2
10/19/2017  17:43:57.661543	-3.070136E+0	1.319332E-2	1.391770E-2	-1.012869E+1	2.222863E-2	2.455003E-2	7.205661E-2	2.401527E-2
10/19/2017  17:43:57.662543	-3.237908E+0	1.064948E-2	1.646291E-2	-1.014396E+1	1.202884E-2	1.946206E-2	7.459952E-2	2.147136E-2
10/19/2017  17:43:57.663543	-3.237908E+0	8.105642E-3	1.137250E-2	-1.014651E+1	2.222863E-2	1.183011E-2	7.459952E-2	3.927877E-2
10/19/2017  17:43:57.664543	-3.418390E+0	1.319332E-2	1.646291E-2	-1.014142E+1	2.987847E-2	2.455003E-2	6.951371E-2	4.182269E-2
10/19/2017  17:43:57.665543	-1.727962E+0	1.828100E-2	2.155331E-2	-1.012614E+1	1.967868E-2	2.963800E-2	7.205661E-2	2.401527E-2
10/19/2017  17:43:57.666543	-3.883289E-1	3.017961E-3	1.900811E-2	-1.013887E+1	1.712873E-2	1.691808E-2	8.222822E-2	2.401527E-2
10/19/2017  17:43:57.667543	-8.865604E-1	5.561801E-3	1.900811E-2	-1.013632E+1	2.732853E-2	1.691808E-2	6.442791E-2	3.927877E-2
10/19/2017  17:43:57.668543	-1.672038E+0	1.828100E-2	8.827299E-3	-1.014142E+1	2.477858E-2	2.963800E-2	6.697081E-2	2.655919E-2
								
10/19/2017  17:43:57.669543	9.973469E-2	2.591253E-2	2.155331E-2	-1.014396E+1	1.712873E-2	2.709402E-2	9.239983E-2	3.164702E-2
10/19/2017  17:43:57.670543	3.844097E+0	1.828100E-2	1.900811E-2	-1.013123E+1	2.732853E-2	9.286120E-3	7.459952E-2	3.419094E-2
10/19/2017  17:43:57.671543	4.987996E+0	8.105642E-3	1.646291E-2	-1.012869E+1	2.477858E-2	1.946206E-2	6.188501E-2	2.655919E-2
10/19/2017  17:43:57.672543	8.852120E-1	1.573716E-2	1.391770E-2	-1.013632E+1	1.457878E-2	1.946206E-2	7.205661E-2	3.164702E-2
10/19/2017  17:43:57.673543	-1.303448E+0	2.082484E-2	1.900811E-2	-1.013887E+1	1.967868E-2	1.946206E-2	8.222822E-2	3.673486E-2
10/19/2017  17:43:57.674543	-1.710168E+0	8.105642E-3	1.191689E-3	-1.013378E+1	1.967868E-2	1.183011E-2	7.459952E-2	2.910311E-2
10/19/2017  17:43:57.675543	-3.731056E+0	8.105642E-3	1.900811E-2	-1.014396E+1	2.222863E-2	1.946206E-2	7.205661E-2	2.401527E-2
10/19/2017  17:43:57.676543	-2.508355E+0	1.573716E-2	1.391770E-2	-1.013632E+1	2.477858E-2	1.946206E-2	7.459952E-2	2.147136E-2
10/19/2017  17:43:57.677543	-5.001768E-1	-2.069720E-3	1.646291E-2	-1.015160E+1	2.987847E-2	2.455003E-2	7.459952E-2	3.673486E-2
10/19/2017  17:43:57.678543	6.335542E-1	5.561801E-3	1.646291E-2	-1.012614E+1	2.477858E-2	1.946206E-2	6.697081E-2	3.419094E-2
10/19/2017  17:43:57.679543	4.378204E-1	1.828100E-2	1.137250E-2	-1.013378E+1	2.477858E-2	2.455003E-2	7.459952E-2	2.147136E-2
10/19/2017  17:43:57.680543	1.726613E+0	1.319332E-2	2.155331E-2	-1.014651E+1	1.967868E-2	1.691808E-2	7.714242E-2	2.910311E-2
10/19/2017  17:43:57.681543	2.540052E+0	8.105642E-3	1.900811E-2	-1.012869E+1	1.457878E-2	1.691808E-2	7.459952E-2	3.419094E-2
10/19/2017  17:43:57.682543	3.134880E+0	1.319332E-2	1.900811E-2	-1.012359E+1	2.987847E-2	2.455003E-2	6.697081E-2	3.164702E-2
10/19/2017  17:43:57.683543	-1.719720E-2	2.336868E-2	1.646291E-2	-1.014142E+1	2.477858E-2	2.709402E-2	7.205661E-2	1.892744E-2
10/19/2017  17:43:57.684543	-1.392418E+0	1.064948E-2	1.137250E-2	-1.014142E+1	1.457878E-2	2.455003E-2	7.714242E-2	3.164702E-2
10/19/2017  17:43:57.685543	5.496683E-1	5.561801E-3	1.137250E-2	-1.013632E+1	1.967868E-2	1.691808E-2	7.205661E-2	2.910311E-2
10/19/2017  17:43:57.686543	2.390075E+0	1.064948E-2	1.900811E-2	-1.015415E+1	2.222863E-2	1.183011E-2	8.222822E-2	2.147136E-2
10/19/2017  17:43:57.687543	1.546131E+0	1.828100E-2	2.155331E-2	-1.013378E+1	2.222863E-2	2.200605E-2	7.968532E-2	2.910311E-2
10/19/2017  17:43:57.688543	8.114940E-1	5.561801E-3	1.391770E-2	-1.013123E+1	1.967868E-2	2.709402E-2	7.968532E-2	2.910311E-2
10/19/2017  17:43:57.689543	5.369583E-1	1.573716E-2	1.646291E-2	-1.013632E+1	1.712873E-2	1.946206E-2	6.951371E-2	2.655919E-2
10/19/2017  17:43:57.690543	2.118081E+0	1.319332E-2	2.155331E-2	-1.013632E+1	1.967868E-2	2.200605E-2	6.951371E-2	2.910311E-2
10/19/2017  17:43:57.691543	2.024027E+0	1.064948E-2	3.173413E-2	-1.012614E+1	2.477858E-2	1.946206E-2	7.459952E-2	3.673486E-2
10/19/2017  17:43:57.692543	-1.061958E+0	1.573716E-2	1.137250E-2	-1.012869E+1	2.477858E-2	1.946206E-2	6.697081E-2	2.655919E-2
10/19/2017  17:43:57.693543	-3.034548E+0	2.082484E-2	1.137250E-2	-1.015160E+1	1.457878E-2	3.472597E-2	8.222822E-2	2.910311E-2
10/19/2017  17:43:57.694543	-2.571905E+0	-4.613560E-3	1.900811E-2	-1.014396E+1	1.967868E-2	1.691808E-2	7.205661E-2	3.673486E-2
10/19/2017  17:43:57.695543	-1.206852E+0	1.573716E-2	1.900811E-2	-1.014396E+1	2.222863E-2	1.183011E-2	7.714242E-2	2.147136E-2
10/19/2017  17:43:57.696543	1.543589E+0	3.100021E-2	1.900811E-2	-1.012614E+1	1.712873E-2	2.200605E-2	8.222822E-2	3.419094E-2
10/19/2017  17:43:57.697543	2.853005E-1	8.105642E-3	1.646291E-2	-1.012614E+1	1.967868E-2	1.437409E-2	7.459952E-2	4.182269E-2
10/19/2017  17:43:57.698543	9.182580E-1	8.105642E-3	8.827299E-3	-1.014905E+1	1.457878E-2	2.963800E-2	6.951371E-2	2.910311E-2
10/19/2017  17:43:57.699543	1.126702E+0	2.082484E-2	2.155331E-2	-1.014651E+1	1.457878E-2	2.200605E-2	8.222822E-2	3.419094E-2
10/19/2017  17:43:57.700543	1.492749E+0	8.105642E-3	1.646291E-2	-1.012614E+1	4.007827E-2	1.691808E-2	7.714242E-2	2.401527E-2
10/19/2017  17:43:57.701543	-1.173806E+0	1.319332E-2	1.900811E-2	-1.012869E+1	2.222863E-2	2.709402E-2	7.205661E-2	2.910311E-2
								
10/19/2017  17:43:57.702543	-1.849978E+0	1.828100E-2	1.137250E-2	-1.014651E+1	2.222863E-2	2.455003E-2	7.459952E-2	2.147136E-2
10/19/2017  17:43:57.703543	-1.036538E+0	1.064948E-2	8.827299E-3	-1.013887E+1	1.967868E-2	2.200605E-2	7.205661E-2	3.673486E-2
10/19/2017  17:43:57.704543	-9.526524E-1	1.064948E-2	1.391770E-2	-1.013887E+1	2.477858E-2	2.963800E-2	6.951371E-2	3.673486E-2
10/19/2017  17:43:57.705543	-2.841070E-1	1.828100E-2	2.918892E-2	-1.015669E+1	1.457878E-2	2.709402E-2	8.477112E-2	2.401527E-2
10/19/2017  17:43:57.706543	4.556144E-1	5.561801E-3	1.646291E-2	-1.013632E+1	1.712873E-2	9.286120E-3	7.714242E-2	3.164702E-2
10/19/2017  17:43:57.707543	1.604597E+0	1.064948E-2	1.137250E-2	-1.015669E+1	2.222863E-2	1.691808E-2	6.188501E-2	3.164702E-2
10/19/2017  17:43:57.708543	2.407869E+0	1.064948E-2	3.173413E-2	-1.013632E+1	1.202884E-2	2.709402E-2	7.968532E-2	2.910311E-2
10/19/2017  17:43:57.709543	1.106366E+0	5.561801E-3	2.409852E-2	-1.012359E+1	1.712873E-2	1.946206E-2	7.714242E-2	3.673486E-2
10/19/2017  17:43:57.710543	1.525795E+0	2.336868E-2	1.646291E-2	-1.013887E+1	3.242842E-2	1.946206E-2	6.951371E-2	3.164702E-2
10/19/2017  17:43:57.711543	-9.297744E-1	1.573716E-2	2.155331E-2	-1.014396E+1	1.712873E-2	2.709402E-2	7.205661E-2	3.164702E-2
10/19/2017  17:43:57.712543	-2.795601E+0	1.573716E-2	2.409852E-2	-1.014142E+1	1.712873E-2	1.183011E-2	7.459952E-2	2.910311E-2
10/19/2017  17:43:57.713543	-3.725972E+0	-4.613560E-3	1.646291E-2	-1.014142E+1	1.967868E-2	1.946206E-2	7.459952E-2	3.164702E-2
10/19/2017  17:43:57.714543	-3.853072E+0	1.828100E-2	8.827299E-3	-1.014142E+1	2.222863E-2	2.963800E-2	6.951371E-2	3.419094E-2
10/19/2017  17:43:57.715543	-4.544208E-1	3.017961E-3	1.900811E-2	-1.013887E+1	2.222863E-2	2.200605E-2	7.205661E-2	3.164702E-2
10/19/2017  17:43:57.716543	-2.330415E+0	8.105642E-3	1.900811E-2	-1.013123E+1	1.712873E-2	1.654165E-3	7.459952E-2	3.164702E-2
10/19/2017  17:43:57.717543	-2.472767E+0	1.319332E-2	1.137250E-2	-1.015669E+1	3.242842E-2	2.455003E-2	6.951371E-2	2.655919E-2
10/19/2017  17:43:57.718543	1.454619E+0	1.828100E-2	2.664372E-2	-1.013887E+1	1.712873E-2	2.963800E-2	7.714242E-2	3.164702E-2
10/19/2017  17:43:57.719543	3.793257E+0	1.319332E-2	1.646291E-2	-1.013123E+1	2.477858E-2	1.946206E-2	8.731403E-2	3.419094E-2
10/19/2017  17:43:57.720543	4.540605E+0	1.064948E-2	8.827299E-3	-1.013632E+1	2.732853E-2	1.946206E-2	6.697081E-2	3.164702E-2
10/19/2017  17:43:57.721543	1.215672E+0	2.082484E-2	1.391770E-2	-1.014142E+1	1.712873E-2	2.455003E-2	7.205661E-2	2.910311E-2
10/19/2017  17:43:57.722543	-6.069407E-1	1.573716E-2	1.391770E-2	-1.013123E+1	1.712873E-2	1.946206E-2	7.968532E-2	3.927877E-2
10/19/2017  17:43:57.723543	-2.663130E-1	1.064948E-2	8.827299E-3	-1.014142E+1	2.987847E-2	2.455003E-2	6.951371E-2	4.182269E-2
10/19/2017  17:43:57.724543	1.683399E+0	1.573716E-2	1.900811E-2	-1.014142E+1	2.222863E-2	3.218199E-2	7.205661E-2	3.164702E-2
10/19/2017  17:43:57.725543	3.462798E+0	1.064948E-2	2.409852E-2	-1.013632E+1	1.967868E-2	1.946206E-2	7.459952E-2	2.655919E-2
10/19/2017  17:43:57.726543	-4.214035E+0	1.573716E-2	1.646291E-2	-1.014396E+1	2.222863E-2	1.691808E-2	6.697081E-2	3.164702E-2
10/19/2017  17:43:57.727543	-4.422479E+0	1.573716E-2	2.155331E-2	-1.015669E+1	2.222863E-2	3.218199E-2	7.459952E-2	2.401527E-2
10/19/2017  17:43:57.728543	3.935609E+0	5.561801E-3	2.409852E-2	-1.013632E+1	1.457878E-2	2.455003E-2	9.239983E-2	3.927877E-2
10/19/2017  17:43:57.729543	5.008332E+0	1.828100E-2	3.736893E-3	-1.012105E+1	2.732853E-2	1.946206E-2	6.951371E-2	2.910311E-2
10/19/2017  17:43:57.730543	1.813041E+0	1.573716E-2	1.900811E-2	-1.014142E+1	1.967868E-2	2.963800E-2	6.697081E-2	2.401527E-2
10/19/2017  17:43:57.731543	-1.707626E+0	1.319332E-2	3.173413E-2	-1.013632E+1	1.202884E-2	2.709402E-2	8.222822E-2	3.164702E-2
10/19/2017  17:43:57.732543	-4.333509E+0	8.105642E-3	1.646291E-2	-1.014142E+1	2.222863E-2	1.946206E-2	7.714242E-2	3.673486E-2
10/19/2017  17:43:57.733543	-3.067594E+0	1.573716E-2	1.137250E-2	-1.014905E+1	3.497837E-2	1.691808E-2	6.697081E-2	3.419094E-2
10/19/2017  17:43:57.734543	-4.849248E-1	8.105642E-3	2.155331E-2	-1.014651E+1	1.457878E-2	2.963800E-2	7.205661E-2	2.147136E-2
								
10/19/2017  17:43:57.735543	-2.688550E-1	5.561801E-3	2.155331E-2	-1.012105E+1	1.457878E-2	1.946206E-2	8.222822E-2	3.164702E-2
10/19/2017  17:43:57.736543	4.530724E-1	2.336868E-2	1.391770E-2	-1.013887E+1	3.497837E-2	1.946206E-2	6.951371E-2	3.927877E-2
10/19/2017  17:43:57.737543	6.589742E-1	1.573716E-2	2.155331E-2	-1.013887E+1	2.222863E-2	1.946206E-2	7.459952E-2	2.655919E-2
10/19/2017  17:43:57.738543	1.454906E-1	1.064948E-2	1.391770E-2	-1.013632E+1	1.457878E-2	2.200605E-2	7.205661E-2	3.164702E-2
10/19/2017  17:43:57.739543	-1.023828E+0	1.319332E-2	8.827299E-3	-1.014651E+1	2.732853E-2	1.946206E-2	6.951371E-2	3.164702E-2
10/19/2017  17:43:57.740543	-8.103005E-1	1.573716E-2	2.155331E-2	-1.013887E+1	2.477858E-2	2.200605E-2	6.951371E-2	3.164702E-2
10/19/2017  17:43:57.741543	-8.331785E-1	1.064948E-2	2.409852E-2	-1.013123E+1	2.222863E-2	2.200605E-2	7.205661E-2	3.673486E-2
10/19/2017  17:43:57.742543	3.463085E-1	1.064948E-2	8.827299E-3	-1.013887E+1	2.732853E-2	1.946206E-2	6.697081E-2	2.655919E-2
10/19/2017  17:43:57.743543	3.282316E+0	1.828100E-2	1.646291E-2	-1.015160E+1	2.222863E-2	1.437409E-2	6.951371E-2	3.164702E-2
10/19/2017  17:43:57.744543	2.268059E+0	8.105642E-3	2.155331E-2	-1.014142E+1	2.222863E-2	1.437409E-2	7.459952E-2	3.419094E-2
10/19/2017  17:43:57.745543	-4.442528E-1	1.064948E-2	1.391770E-2	-1.013632E+1	2.987847E-2	2.200605E-2	7.459952E-2	2.910311E-2
10/19/2017  17:43:57.746543	-7.492925E-1	2.591253E-2	2.664372E-2	-1.014396E+1	2.222863E-2	3.472597E-2	8.222822E-2	2.910311E-2
10/19/2017  17:43:57.747543	1.622391E+0	8.105642E-3	2.409852E-2	-1.013378E+1	1.457878E-2	9.286120E-3	8.731403E-2	3.673486E-2
10/19/2017  17:43:57.748543	-4.976348E-1	1.064948E-2	1.137250E-2	-1.013887E+1	2.477858E-2	2.200605E-2	6.697081E-2	3.164702E-2
10/19/2017  17:43:57.749543	-1.138218E+0	2.082484E-2	1.646291E-2	-1.014396E+1	2.222863E-2	1.691808E-2	8.222822E-2	3.164702E-2
10/19/2017  17:43:57.750543	-6.069407E-1	1.319332E-2	1.646291E-2	-1.013887E+1	2.477858E-2	2.709402E-2	7.205661E-2	3.419094E-2
10/19/2017  17:43:57.751543	-1.354288E+0	5.561801E-3	1.900811E-2	-1.014651E+1	2.477858E-2	1.946206E-2	6.697081E-2	3.164702E-2
10/19/2017  17:43:57.752543	-2.592241E+0	1.573716E-2	6.282096E-3	-1.014905E+1	1.202884E-2	1.437409E-2	7.459952E-2	2.147136E-2
10/19/2017  17:43:57.753543	-1.504266E+0	8.105642E-3	2.155331E-2	-1.014905E+1	1.457878E-2	2.200605E-2	7.968532E-2	3.164702E-2
10/19/2017  17:43:57.754543	-4.518788E-1	5.561801E-3	2.155331E-2	-1.012869E+1	2.222863E-2	1.691808E-2	7.459952E-2	3.419094E-2
10/19/2017  17:43:57.755543	-1.079752E+0	2.082484E-2	1.391770E-2	-1.013378E+1	1.712873E-2	1.691808E-2	7.459952E-2	3.164702E-2
10/19/2017  17:43:57.756543	-2.338041E+0	1.064948E-2	2.155331E-2	-1.014651E+1	1.967868E-2	9.286120E-3	7.205661E-2	2.401527E-2
10/19/2017  17:43:57.757543	-2.236361E+0	1.064948E-2	2.409852E-2	-1.014651E+1	2.477858E-2	1.437409E-2	7.205661E-2	4.182269E-2
10/19/2017  17:43:57.758543	-1.189058E+0	1.573716E-2	1.900811E-2	-1.013887E+1	2.987847E-2	1.946206E-2	6.951371E-2	2.910311E-2
10/19/2017  17:43:57.759543	3.521264E+0	1.319332E-2	1.646291E-2	-1.013632E+1	1.457878E-2	2.709402E-2	8.477112E-2	2.655919E-2
10/19/2017  17:43:57.760543	4.967660E+0	1.064948E-2	3.173413E-2	-1.012869E+1	1.712873E-2	1.183011E-2	7.714242E-2	4.182269E-2
10/19/2017  17:43:57.761543	2.512091E+0	8.105642E-3	1.391770E-2	-1.012614E+1	1.457878E-2	1.691808E-2	6.188501E-2	2.401527E-2
10/19/2017  17:43:57.762543	1.513085E+0	1.828100E-2	1.137250E-2	-1.014905E+1	1.967868E-2	2.455003E-2	7.459952E-2	2.910311E-2
10/19/2017  17:43:57.763543	-1.773718E+0	1.319332E-2	2.918892E-2	-1.014142E+1	1.712873E-2	2.200605E-2	7.714242E-2	2.910311E-2
10/19/2017  17:43:57.764543	-2.495645E+0	8.105642E-3	2.155331E-2	-1.014651E+1	2.477858E-2	2.455003E-2	7.968532E-2	2.910311E-2
10/19/2017  17:43:57.765543	-2.663417E+0	1.573716E-2	1.646291E-2	-1.014651E+1	1.967868E-2	1.946206E-2	7.205661E-2	1.383961E-2
10/19/2017  17:43:57.766543	-1.788970E+0	1.573716E-2	2.664372E-2	-1.015669E+1	1.967868E-2	1.691808E-2	7.968532E-2	3.164702E-2
10/19/2017  17:43:57.767543	9.741819E-1	-2.069720E-3	1.900811E-2	-1.013123E+1	1.457878E-2	1.946206E-2	7.459952E-2	3.673486E-2
								
10/19/2017  17:43:57.768543	2.809504E+0	1.828100E-2	1.646291E-2	-1.013378E+1	1.712873E-2	2.455003E-2	7.968532E-2	3.164702E-2
10/19/2017  17:43:57.769543	2.006233E+0	2.082484E-2	3.682453E-2	-1.013632E+1	2.477858E-2	1.946206E-2	7.205661E-2	2.655919E-2
10/19/2017  17:43:57.770543	9.465070E-2	4.741205E-4	1.646291E-2	-1.013378E+1	1.967868E-2	1.946206E-2	7.459952E-2	3.673486E-2
10/19/2017  17:43:57.771543	3.615605E-1	1.064948E-2	6.282096E-3	-1.014142E+1	1.967868E-2	1.183011E-2	6.697081E-2	2.655919E-2
10/19/2017  17:43:57.772543	1.421573E+0	1.828100E-2	1.900811E-2	-1.014651E+1	2.732853E-2	2.455003E-2	7.205661E-2	2.147136E-2
10/19/2017  17:43:57.773543	1.754575E+0	1.319332E-2	2.155331E-2	-1.013378E+1	1.202884E-2	2.963800E-2	7.968532E-2	3.673486E-2
10/19/2017  17:43:57.774543	2.827298E+0	4.741205E-4	1.391770E-2	-1.012105E+1	2.477858E-2	1.437409E-2	7.459952E-2	3.419094E-2
10/19/2017  17:43:57.775543	5.005790E+0	1.319332E-2	1.900811E-2	-1.013632E+1	2.987847E-2	2.200605E-2	7.714242E-2	1.129569E-2
10/19/2017  17:43:57.776543	2.786626E+0	2.336868E-2	2.409852E-2	-1.014651E+1	1.967868E-2	1.946206E-2	8.477112E-2	3.164702E-2
10/19/2017  17:43:57.777543	-4.610587E+0	1.064948E-2	1.900811E-2	-1.012869E+1	1.967868E-2	1.691808E-2	7.205661E-2	3.673486E-2
10/19/2017  17:43:57.778543	-4.933421E+0	1.319332E-2	1.137250E-2	-1.014142E+1	3.752832E-2	2.200605E-2	7.205661E-2	2.910311E-2
10/19/2017  17:43:57.779543	-2.678669E+0	2.082484E-2	1.900811E-2	-1.014905E+1	1.457878E-2	2.709402E-2	7.968532E-2	2.655919E-2
10/19/2017  17:43:57.780543	-2.594783E+0	8.105642E-3	2.155331E-2	-1.013632E+1	1.712873E-2	2.200605E-2	7.205661E-2	3.673486E-2
10/19/2017  17:43:57.781543	-1.771176E+0	1.319332E-2	1.137250E-2	-1.012614E+1	2.222863E-2	2.455003E-2	6.697081E-2	2.910311E-2
10/19/2017  17:43:57.782543	5.801723E-1	2.082484E-2	2.409852E-2	-1.014651E+1	2.477858E-2	2.709402E-2	7.205661E-2	2.655919E-2
10/19/2017  17:43:57.783543	1.627475E+0	1.064948E-2	2.409852E-2	-1.013887E+1	1.712873E-2	2.200605E-2	7.714242E-2	3.673486E-2
10/19/2017  17:43:57.784543	7.276081E-1	5.561801E-3	1.391770E-2	-1.012614E+1	2.732853E-2	1.691808E-2	6.951371E-2	2.910311E-2
10/19/2017  17:43:57.785543	3.615605E-1	1.573716E-2	1.137250E-2	-1.013123E+1	2.987847E-2	2.963800E-2	6.188501E-2	3.419094E-2
10/19/2017  17:43:57.786543	9.843499E-1	2.082484E-2	2.155331E-2	-1.014142E+1	2.222863E-2	2.200605E-2	7.459952E-2	3.164702E-2
10/19/2017  17:43:57.787543	4.977828E+0	1.828100E-2	1.900811E-2	-1.012869E+1	2.222863E-2	2.455003E-2	7.459952E-2	3.673486E-2
10/19/2017  17:43:57.788543	4.977828E+0	5.561801E-3	8.827299E-3	-1.013378E+1	1.967868E-2	1.437409E-2	6.697081E-2	2.655919E-2
10/19/2017  17:43:57.789543	-1.522060E+0	1.828100E-2	2.409852E-2	-1.014396E+1	1.712873E-2	2.963800E-2	6.442791E-2	2.147136E-2
10/19/2017  17:43:57.790543	-4.925795E+0	1.064948E-2	2.155331E-2	-1.014651E+1	2.222863E-2	2.709402E-2	7.459952E-2	2.910311E-2
10/19/2017  17:43:57.791543	-4.946131E+0	1.064948E-2	1.646291E-2	-1.014905E+1	2.222863E-2	1.946206E-2	6.697081E-2	2.910311E-2
10/19/2017  17:43:57.792543	-4.086936E+0	1.828100E-2	1.137250E-2	-1.015415E+1	2.477858E-2	1.946206E-2	7.205661E-2	2.401527E-2
