Parameters: 	Upper Cutoff: : 500	Lower Cutoff: : 10	Sample Rate (HZ)1000	Frames Per Second: 30	Display Window Size (S)400	MVC Window Size (s): 400	Seconds To Acquire MVC: 3	Display Channel: 0
waveform	[0]	[1]	[2]	[3]	[4]	[5]	[6]	[7]
t0	10/19/2017  17:43:31.839406	10/19/2017  17:43:31.839406	10/19/2017  17:43:31.839406	10/19/2017  17:43:31.839406	10/19/2017  17:43:31.839406	10/19/2017  17:43:31.839406	10/19/2017  17:43:31.839406	10/19/2017  17:43:31.839406
delta t	0.001000	0.001000	0.001000	0.001000	0.001000	0.001000	0.001000	0.001000

time	Y[0]	Y[1]	Y[2]	Y[3]	Y[4]	Y[5]	Y[6]	Y[7]
10/19/2017  17:43:31.824206	3.667951E-1	9.204941E-3	1.642696E-3	4.001883E-3	9.188576E-3	1.703739E-3	9.127943E-3	7.149556E-3
10/19/2017  17:43:31.825206	1.875793E-1	6.568865E-4	3.079378E-3	1.105834E-2	4.039407E-3	3.698664E-3	5.447428E-3	6.046779E-3
10/19/2017  17:43:31.826206	2.868922E-1	8.952595E-3	7.028428E-3	2.861364E-3	8.171411E-3	6.379831E-3	7.108340E-3	6.685837E-3
10/19/2017  17:43:31.827206	4.436403E-1	7.624317E-3	8.492464E-3	9.961582E-3	1.678494E-4	5.486441E-3	8.098197E-3	3.351532E-3
10/19/2017  17:43:31.828206	4.012296E-1	2.973771E-3	7.288166E-3	8.843716E-3	4.894808E-3	1.408328E-2	2.167021E-3	6.547761E-3
10/19/2017  17:43:31.829206	1.278965E+0	1.662100E-2	5.548409E-3	7.796431E-3	9.946279E-3	2.386092E-3	5.232746E-3	8.033077E-4
10/19/2017  17:43:31.830206	1.094951E+0	7.156079E-3	2.306460E-3	2.563669E-3	3.622961E-3	1.695504E-2	4.415884E-3	4.086373E-3
10/19/2017  17:43:31.831206	2.436802E-1	5.558917E-3	7.507303E-3	1.213384E-2	1.118934E-2	2.699427E-3	8.051056E-3	1.184413E-3
10/19/2017  17:43:31.832206	9.651146E-1	2.215651E-3	1.672936E-3	1.004448E-3	2.215283E-3	2.348938E-2	2.038995E-4	8.421651E-3
10/19/2017  17:43:31.833206	4.252695E-1	1.340495E-2	3.302689E-3	1.079942E-2	5.323554E-4	1.457212E-3	9.544998E-3	6.611523E-5
10/19/2017  17:43:31.834206	1.131070E-1	1.008417E-2	4.537328E-4	4.258969E-4	5.099063E-4	1.090574E-2	3.735902E-3	4.305781E-6
10/19/2017  17:43:31.835206	8.497011E-1	6.469686E-3	3.778539E-4	5.259024E-3	7.532630E-3	4.634745E-3	5.597922E-3	1.176613E-2
10/19/2017  17:43:31.836206	1.795475E-3	3.329536E-3	5.000450E-3	4.606189E-3	5.394431E-3	9.937067E-4	6.940228E-3	5.148201E-4
10/19/2017  17:43:31.837206	4.109293E-1	5.314688E-3	5.164164E-4	8.684069E-3	4.841924E-3	1.082103E-3	1.089500E-3	4.358492E-3
10/19/2017  17:43:31.838206	2.826082E-1	9.485524E-5	2.847080E-3	2.040269E-3	1.721498E-3	1.154859E-3	1.555547E-3	1.414764E-3
10/19/2017  17:43:31.839206	1.234532E-1	7.032918E-3	4.788629E-3	6.031562E-4	7.998278E-3	1.212990E-3	3.237267E-3	3.440421E-3
10/19/2017  17:43:31.840206	4.879315E-1	3.618760E-3	8.718068E-3	4.859284E-4	2.642950E-3	1.297471E-2	2.265195E-4	8.890518E-3
10/19/2017  17:43:31.841206	5.380289E-1	6.715356E-4	2.139127E-4	1.209820E-2	4.592632E-3	5.321256E-3	7.027426E-3	7.529470E-3
10/19/2017  17:43:31.842206	2.766909E-1	6.530944E-3	7.015222E-3	5.372725E-3	5.557256E-3	4.372234E-3	3.291993E-3	5.437978E-3
10/19/2017  17:43:31.843206	1.681271E-1	8.523258E-3	1.307080E-2	5.109416E-3	9.613608E-6	1.055497E-2	2.866712E-4	4.713722E-3
10/19/2017  17:43:31.844206	2.883887E-1	4.782641E-3	5.396240E-3	1.120189E-4	7.046254E-3	3.389643E-4	1.867427E-2	5.480195E-3
10/19/2017  17:43:31.845206	8.671187E-1	8.042797E-4	6.931755E-3	1.667190E-4	3.499404E-3	2.029762E-4	6.003719E-4	7.034440E-3
10/19/2017  17:43:31.846206	1.046759E-2	5.546631E-3	3.578343E-3	2.764456E-3	7.710575E-3	2.260644E-3	1.226426E-2	3.452372E-3
10/19/2017  17:43:31.847206	3.101268E-1	4.548106E-3	1.802189E-2	2.606893E-3	5.253747E-3	9.011589E-3	9.240512E-4	7.623809E-3
10/19/2017  17:43:31.848206	8.746613E-2	8.361026E-3	9.487074E-4	4.802504E-3	4.444790E-3	8.808105E-3	1.105996E-2	7.679128E-3
10/19/2017  17:43:31.849206	8.286579E-1	7.267947E-3	5.010875E-4	7.450625E-3	1.274231E-2	6.643179E-3	1.395550E-5	1.119639E-2
10/19/2017  17:43:31.850206	1.431802E+0	1.108115E-2	1.162430E-2	8.057614E-3	3.679197E-3	5.609813E-3	2.330927E-3	7.053466E-3
10/19/2017  17:43:31.851206	4.639278E-1	2.214504E-3	6.352396E-3	7.061909E-3	8.759527E-3	2.887252E-5	9.764771E-3	6.054389E-3
10/19/2017  17:43:31.852206	5.845536E-1	4.088770E-3	5.103491E-3	5.584927E-3	1.685981E-2	7.163770E-3	3.509739E-3	8.926504E-3
10/19/2017  17:43:31.853206	2.293808E-1	3.754012E-3	1.010306E-2	1.810598E-4	7.016900E-3	1.416984E-3	6.530986E-3	7.464059E-3
10/19/2017  17:43:31.854206	5.389675E-1	3.688028E-3	8.828481E-3	2.739955E-3	5.687095E-3	3.474415E-3	3.261379E-3	1.028172E-2
10/19/2017  17:43:31.855206	2.251260E-1	1.769016E-3	1.731685E-3	1.998652E-4	4.644387E-3	1.795326E-3	6.580115E-3	4.129495E-3
10/19/2017  17:43:31.856206	9.519448E-1	6.388062E-3	1.059182E-3	1.132645E-2	5.704563E-3	6.248716E-3	6.234497E-3	1.138808E-3
								
10/19/2017  17:43:31.857206	1.321665E+0	8.631221E-4	1.267182E-3	1.564555E-4	7.379118E-3	5.779561E-4	2.978274E-3	6.124495E-3
10/19/2017  17:43:31.858206	1.259010E+0	6.172987E-3	1.471573E-3	1.226334E-2	4.017365E-3	4.454424E-4	2.164970E-3	5.182782E-3
10/19/2017  17:43:31.859206	1.118574E-1	6.687563E-3	6.129828E-3	8.086958E-3	1.230566E-3	4.359980E-3	2.866451E-3	9.743200E-3
10/19/2017  17:43:31.860206	4.288707E-1	3.465336E-3	1.001226E-2	5.248309E-3	3.730102E-3	9.909663E-4	4.756655E-3	8.175454E-3
10/19/2017  17:43:31.861206	5.575601E-1	3.993658E-3	3.228674E-3	2.120584E-2	3.197340E-3	3.852841E-3	1.478403E-2	4.531340E-3
10/19/2017  17:43:31.862206	9.941823E-2	1.448332E-3	1.208073E-2	6.859767E-4	4.341298E-3	3.225664E-3	3.072817E-3	1.033843E-2
10/19/2017  17:43:31.863206	1.045815E-1	6.054182E-3	6.820600E-4	4.893739E-4	1.060698E-3	6.725274E-3	4.565426E-3	6.033900E-4
10/19/2017  17:43:31.864206	2.301812E-1	5.178566E-4	1.603987E-2	6.722360E-3	5.632689E-3	8.344876E-3	6.309826E-3	2.850692E-3
10/19/2017  17:43:31.865206	4.183509E-1	6.527877E-3	7.480246E-3	8.069279E-3	7.001037E-3	2.276911E-3	1.571146E-2	2.308768E-3
10/19/2017  17:43:31.866206	6.388389E-1	6.324756E-3	1.093323E-2	4.962513E-3	8.239077E-3	5.251737E-3	1.403950E-3	9.002588E-3
10/19/2017  17:43:31.867206	7.994034E-1	7.529535E-4	3.457376E-4	1.892127E-3	2.561658E-3	2.208367E-3	8.421334E-3	1.835236E-3
10/19/2017  17:43:31.868206	7.825868E-1	6.325998E-3	2.887576E-3	3.079567E-3	4.385662E-5	1.947022E-3	4.949409E-3	6.326725E-3
10/19/2017  17:43:31.869206	3.872353E-1	1.352554E-2	4.361514E-3	2.566731E-3	4.597839E-3	2.981838E-3	5.081760E-3	1.655345E-3
10/19/2017  17:43:31.870206	1.439221E+0	2.592344E-4	1.273014E-3	2.595511E-3	3.346522E-3	1.180968E-2	5.212903E-3	6.063806E-3
10/19/2017  17:43:31.871206	6.331067E-1	1.195598E-2	1.073736E-2	2.258232E-3	1.475139E-2	6.633058E-3	4.517905E-3	2.695966E-3
10/19/2017  17:43:31.872206	1.128863E-1	1.701158E-3	2.229305E-3	9.778407E-3	6.288469E-3	1.223376E-3	5.496654E-3	2.544592E-3
10/19/2017  17:43:31.873206	1.150049E-1	1.327270E-2	3.263334E-4	1.102933E-3	1.701754E-2	1.508357E-3	4.814762E-3	4.750998E-3
10/19/2017  17:43:31.874206	5.071556E-1	1.836384E-3	6.889283E-3	3.936760E-3	9.330262E-3	1.473690E-3	6.479060E-3	1.502307E-3
10/19/2017  17:43:31.875206	3.890621E-1	7.896076E-3	1.203554E-3	1.051849E-2	1.748715E-2	3.252131E-3	3.903172E-3	1.061458E-3
10/19/2017  17:43:31.876206	5.761053E-1	2.686390E-3	8.084117E-3	6.596778E-3	7.029672E-4	1.819765E-4	3.730010E-3	3.007736E-3
10/19/2017  17:43:31.877206	5.127350E-1	8.592212E-5	6.782883E-3	1.503552E-3	2.889903E-3	4.779690E-3	1.484316E-2	7.106292E-3
10/19/2017  17:43:31.878206	4.202806E-1	7.127001E-3	7.928672E-3	1.539572E-2	6.034483E-6	6.596690E-3	6.560754E-4	8.580405E-3
10/19/2017  17:43:31.879206	1.123229E+0	1.297607E-3	1.231378E-2	3.498448E-3	7.145911E-3	5.719432E-3	9.061317E-3	1.604685E-2
10/19/2017  17:43:31.880206	7.975181E-1	6.009896E-3	5.816748E-3	2.418530E-2	5.660667E-3	2.123659E-3	8.561543E-3	5.443920E-3
10/19/2017  17:43:31.881206	3.962125E-1	6.610394E-3	4.704662E-3	7.811623E-3	1.023616E-5	4.064017E-3	2.638382E-5	1.893704E-2
10/19/2017  17:43:31.882206	7.970931E-1	3.852768E-3	8.036425E-3	1.141963E-2	7.140000E-3	1.309108E-2	2.999130E-4	9.681868E-3
10/19/2017  17:43:31.883206	1.615491E-1	1.268449E-2	2.351628E-3	2.683225E-4	8.017316E-3	6.395267E-3	4.142527E-3	3.649342E-3
10/19/2017  17:43:31.884206	8.524737E-1	5.759360E-3	1.441243E-4	4.870402E-3	1.983123E-3	6.401403E-3	1.557932E-2	7.889441E-3
10/19/2017  17:43:31.885206	4.034981E-1	2.548195E-4	1.416428E-2	4.019616E-3	1.527963E-3	3.125116E-3	8.708751E-3	2.671088E-3
10/19/2017  17:43:31.886206	7.510281E-1	9.101316E-3	4.341158E-3	1.450493E-3	1.113437E-3	6.721639E-3	1.909103E-3	2.227346E-3
10/19/2017  17:43:31.887206	9.150936E-1	5.168505E-4	3.572413E-3	1.392539E-3	6.309301E-3	5.616124E-3	1.522065E-3	5.206623E-3
10/19/2017  17:43:31.888206	5.158420E-1	6.784456E-3	4.166255E-3	1.334211E-3	7.840637E-3	4.773119E-3	8.199499E-3	6.761927E-3
10/19/2017  17:43:31.889206	2.960114E-1	3.498625E-3	1.311156E-3	5.966083E-3	2.697123E-3	9.896757E-3	4.777351E-5	8.411087E-3
								
10/19/2017  17:43:31.890206	1.089708E+0	9.829519E-3	5.810203E-3	4.470377E-4	2.491652E-3	8.252626E-3	7.045437E-3	4.590762E-3
10/19/2017  17:43:31.891206	3.595564E-2	8.365958E-3	2.294826E-3	4.238024E-3	2.169417E-3	9.246841E-3	1.181435E-3	1.087600E-2
10/19/2017  17:43:31.892206	5.916890E-1	1.668498E-2	9.153404E-3	1.060570E-2	6.569205E-3	2.879062E-3	6.156230E-3	9.711533E-3
10/19/2017  17:43:31.893206	1.566707E-1	2.452742E-3	3.890737E-3	3.792946E-4	6.221830E-3	2.575208E-3	4.087836E-3	3.635832E-3
10/19/2017  17:43:31.894206	7.253113E-1	2.062084E-3	8.388664E-4	4.375385E-3	5.254142E-3	9.530425E-3	3.669995E-3	3.902958E-3
10/19/2017  17:43:31.895206	8.327358E-1	7.669550E-3	4.112118E-3	1.318908E-3	5.031076E-3	1.078017E-3	8.402395E-4	1.470959E-3
10/19/2017  17:43:31.896206	3.185706E-1	5.258126E-3	1.233934E-3	1.051279E-3	9.001413E-3	1.660696E-3	8.597410E-3	8.041070E-3
10/19/2017  17:43:31.897206	4.401309E-2	6.790498E-3	1.124777E-3	3.152681E-3	1.836059E-3	1.334778E-2	9.813288E-5	6.630459E-3
10/19/2017  17:43:31.898206	1.012081E-1	3.317265E-3	1.021425E-3	2.012444E-4	5.429892E-3	3.297629E-4	9.463981E-3	1.692367E-3
10/19/2017  17:43:31.899206	7.858431E-1	6.706781E-3	1.079917E-2	4.657057E-3	2.570065E-3	4.899661E-3	3.618076E-3	8.748830E-3
10/19/2017  17:43:31.900206	1.296570E+0	5.760919E-3	5.100473E-3	1.691038E-3	6.382265E-5	6.606161E-4	6.174181E-4	5.799265E-4
10/19/2017  17:43:31.901206	1.915909E-1	2.142107E-3	9.157984E-3	1.022451E-2	4.642196E-3	5.375359E-3	1.365185E-2	1.662508E-3
10/19/2017  17:43:31.902206	4.053372E-1	4.134958E-3	3.112181E-3	3.786233E-3	3.281499E-3	2.404949E-3	2.519694E-3	8.182561E-3
10/19/2017  17:43:31.903206	4.846081E-1	3.600603E-3	4.401691E-3	1.734195E-3	7.622358E-3	9.772610E-3	2.160385E-3	3.986641E-5
10/19/2017  17:43:31.904206	3.728852E-1	7.488438E-4	6.033884E-3	6.408023E-3	5.227731E-3	3.580301E-3	2.853288E-3	4.520504E-3
10/19/2017  17:43:31.905206	4.768536E-3	3.007206E-3	6.726517E-3	6.113278E-3	4.318982E-3	4.066318E-3	4.156960E-5	5.733992E-3
10/19/2017  17:43:31.906206	7.442326E-1	4.885990E-3	5.972005E-3	4.453383E-3	1.530339E-2	1.134731E-3	7.034039E-3	2.654869E-3
10/19/2017  17:43:31.907206	7.211482E-1	1.730317E-3	4.430541E-3	3.993169E-3	1.118383E-3	3.707728E-3	1.101688E-3	7.015935E-3
10/19/2017  17:43:31.908206	5.218261E-2	9.735914E-4	5.550807E-3	1.215010E-3	5.644878E-3	1.332384E-2	5.648540E-3	1.068120E-3
10/19/2017  17:43:31.909206	1.952887E-1	3.769052E-3	2.463892E-3	1.151765E-3	1.930966E-5	1.833371E-3	6.408397E-5	8.688081E-3
10/19/2017  17:43:31.910206	1.251516E-2	1.632573E-3	2.484200E-3	6.240853E-3	1.180372E-2	3.256586E-3	4.679989E-3	4.620888E-4
10/19/2017  17:43:31.911206	1.384930E-1	2.260576E-2	2.730719E-3	3.059907E-3	8.847834E-3	7.538619E-3	7.190532E-4	5.106056E-4
10/19/2017  17:43:31.912206	2.609463E-2	4.401664E-3	2.251845E-3	3.242967E-4	2.774579E-3	6.385708E-4	1.738047E-3	7.579662E-3
10/19/2017  17:43:31.913206	5.464872E-2	1.493842E-3	5.275396E-3	4.345658E-3	1.181052E-2	5.227920E-3	3.803418E-3	1.768727E-3
10/19/2017  17:43:31.914206	1.111106E-1	5.674419E-3	4.566958E-3	1.128236E-3	5.492753E-4	9.690069E-3	8.242181E-4	5.528695E-3
10/19/2017  17:43:31.915206	2.115798E-1	2.307562E-3	6.254214E-3	1.071465E-3	9.773033E-3	1.207668E-3	1.108482E-2	2.407942E-3
10/19/2017  17:43:31.916206	2.871657E-1	2.929712E-3	2.916366E-3	6.023531E-3	1.321439E-3	5.757342E-3	2.374056E-3	2.083346E-3
10/19/2017  17:43:31.917206	6.218572E-1	7.345753E-3	4.216209E-5	4.450876E-3	1.542832E-2	2.518358E-3	1.142754E-2	7.592106E-3
10/19/2017  17:43:31.918206	4.699812E-1	3.052733E-3	2.285163E-3	3.906988E-3	3.724011E-3	2.605024E-3	9.140675E-3	1.646610E-3
10/19/2017  17:43:31.919206	7.712118E-2	2.225628E-3	1.807913E-3	3.637050E-3	3.904395E-3	2.453516E-3	3.971601E-3	5.766105E-3
10/19/2017  17:43:31.920206	1.827618E-1	1.994920E-3	8.006853E-3	1.702744E-2	3.281425E-3	5.001827E-3	9.957771E-4	4.956981E-3
10/19/2017  17:43:31.921206	1.383263E-1	2.908852E-3	6.864884E-3	7.007554E-3	3.601367E-4	4.519932E-4	8.009739E-4	2.822006E-3
10/19/2017  17:43:31.922206	9.833041E-2	2.343180E-3	1.220020E-3	2.263606E-2	4.476260E-3	2.732920E-3	4.059420E-3	1.566938E-5
								
10/19/2017  17:43:31.923206	1.529111E-2	2.598540E-3	1.314450E-3	4.405463E-4	7.915037E-3	4.738112E-3	8.264599E-3	4.708664E-3
10/19/2017  17:43:31.924206	2.074923E-1	2.745272E-4	1.105748E-3	9.738623E-3	7.510989E-3	8.673499E-3	2.221888E-3	7.746724E-3
10/19/2017  17:43:31.925206	2.258636E-1	9.743956E-3	1.080704E-2	1.262125E-3	6.287034E-4	6.848445E-3	7.621855E-3	2.869671E-3
10/19/2017  17:43:31.926206	7.474904E-2	3.600340E-3	5.012711E-3	1.134014E-3	7.525619E-3	1.149744E-3	1.222718E-2	2.217503E-3
10/19/2017  17:43:31.927206	6.161900E-2	4.002914E-3	1.913299E-2	3.142092E-3	1.020963E-2	3.230341E-3	6.221997E-3	6.506750E-3
10/19/2017  17:43:31.928206	1.380090E-1	1.033648E-3	4.205534E-3	1.162211E-2	1.646754E-3	9.111561E-3	7.750547E-3	3.997288E-3
10/19/2017  17:43:31.929206	3.271397E-1	1.498299E-3	1.087555E-2	1.780890E-3	1.503501E-2	7.285216E-4	5.102115E-3	1.147290E-3
10/19/2017  17:43:31.930206	1.952641E-1	3.627519E-3	1.077196E-4	6.088591E-3	3.886131E-3	6.391905E-3	9.822510E-3	3.626921E-3
10/19/2017  17:43:31.931206	7.593046E-2	5.386956E-3	2.705030E-3	4.413308E-3	3.458945E-3	7.663793E-3	1.281846E-3	6.429829E-3
10/19/2017  17:43:31.932206	3.311130E-1	1.662517E-2	9.576872E-3	5.480642E-3	1.338313E-2	3.952724E-3	3.643212E-3	6.205063E-3
10/19/2017  17:43:31.933206	7.533680E-2	2.292488E-3	1.114057E-3	2.620019E-3	1.008385E-2	3.086094E-3	6.273811E-3	8.929519E-3
10/19/2017  17:43:31.934206	2.830073E-2	9.901978E-3	3.901888E-3	7.128941E-3	6.392468E-3	9.419170E-3	5.516491E-4	2.914878E-3
10/19/2017  17:43:31.935206	1.519184E-1	1.381777E-3	1.046010E-2	1.023026E-2	1.511706E-3	5.865559E-3	1.975178E-3	1.155252E-4
10/19/2017  17:43:31.936206	1.479192E-1	1.180358E-3	5.152610E-4	3.715179E-3	1.149127E-3	6.588199E-3	7.610866E-3	4.765058E-3
10/19/2017  17:43:31.937206	2.925140E-1	3.688300E-3	2.789781E-3	1.594644E-2	3.875669E-3	1.682273E-3	7.550178E-4	3.959090E-3
10/19/2017  17:43:31.938206	3.533226E-2	3.084519E-3	9.381753E-3	2.733377E-3	3.649147E-3	1.659385E-3	5.512842E-3	8.499105E-3
10/19/2017  17:43:31.939206	8.617777E-2	4.500863E-3	3.854811E-3	1.619635E-2	4.108812E-3	3.057958E-3	6.906432E-3	4.911684E-3
10/19/2017  17:43:31.940206	1.839192E-2	3.173858E-3	1.035402E-2	5.428347E-3	8.295992E-3	7.047985E-3	5.637087E-3	1.928077E-2
10/19/2017  17:43:31.941206	2.513651E-2	4.956044E-3	5.360695E-3	2.138362E-2	4.696202E-3	6.171253E-3	1.192095E-2	4.411464E-3
10/19/2017  17:43:31.942206	2.177473E-2	6.299394E-4	6.907410E-3	9.891638E-3	6.267399E-3	4.017833E-3	5.601890E-3	1.061914E-2
10/19/2017  17:43:31.943206	8.223607E-2	6.837149E-4	8.280281E-3	5.812686E-3	8.922353E-3	3.235363E-3	2.519750E-3	1.788903E-4
10/19/2017  17:43:31.944206	1.298514E-1	1.098771E-2	3.410951E-5	9.458817E-3	1.230682E-2	4.506163E-3	4.807039E-3	4.642018E-3
10/19/2017  17:43:31.945206	1.219369E-1	3.461053E-4	7.089315E-3	1.058510E-2	6.119338E-3	8.682565E-3	7.533118E-4	1.014313E-3
10/19/2017  17:43:31.946206	5.442329E-1	7.630646E-3	1.081221E-3	5.001915E-3	2.894111E-3	4.041822E-4	7.842072E-4	1.050189E-2
10/19/2017  17:43:31.947206	4.014159E-2	3.300193E-4	8.004587E-3	5.990607E-4	6.921277E-3	1.938530E-3	8.072214E-4	2.657789E-3
10/19/2017  17:43:31.948206	6.987878E-2	4.028231E-5	2.630995E-3	1.003973E-2	5.762878E-3	5.471913E-3	8.228947E-4	2.066186E-3
10/19/2017  17:43:31.949206	1.559902E-1	9.590430E-3	4.590057E-3	8.339617E-4	1.174382E-2	2.369217E-3	5.516649E-3	1.528513E-3
10/19/2017  17:43:31.950206	4.483923E-1	1.094614E-3	3.184495E-3	6.707490E-4	6.229418E-4	2.071228E-2	6.517044E-5	3.644772E-3
10/19/2017  17:43:31.951206	2.848068E-2	1.717177E-2	5.055020E-3	5.246010E-4	6.468084E-3	1.085415E-2	4.559207E-3	3.716746E-3
10/19/2017  17:43:31.952206	2.461353E-1	2.469331E-3	7.488294E-3	4.295930E-3	8.741968E-3	9.392073E-3	5.631779E-3	8.840948E-3
10/19/2017  17:43:31.953206	6.602058E-1	5.368401E-3	6.315686E-3	1.512066E-2	4.052966E-4	1.006652E-3	2.184330E-3	5.336457E-3
10/19/2017  17:43:31.954206	9.545462E-1	2.596504E-3	6.485275E-3	1.425596E-3	6.670651E-3	9.081161E-4	2.925032E-3	4.134302E-5
10/19/2017  17:43:31.955206	8.317154E-1	2.273789E-4	3.829415E-3	1.310873E-2	7.889008E-3	1.531755E-3	1.990783E-4	8.670770E-5
								
10/19/2017  17:43:31.956206	5.034987E-1	1.228878E-2	1.018584E-2	9.971957E-3	9.976436E-3	5.789260E-3	4.457750E-3	2.541832E-3
10/19/2017  17:43:31.957206	3.314326E-1	3.635516E-3	3.311841E-3	1.054701E-3	5.514578E-3	6.820777E-3	8.351445E-3	6.940340E-3
10/19/2017  17:43:31.958206	4.160177E-1	9.407188E-4	7.701149E-3	1.040128E-2	4.489193E-3	3.652048E-3	6.860412E-3	5.816653E-3
10/19/2017  17:43:31.959206	5.602333E-1	9.908795E-4	9.763543E-3	6.476578E-3	8.192812E-3	1.014820E-2	6.213379E-3	6.864603E-3
10/19/2017  17:43:31.960206	3.595777E-1	5.712429E-3	1.336619E-3	1.101117E-2	2.420382E-3	3.219182E-3	7.871682E-3	3.479547E-3
10/19/2017  17:43:31.961206	8.519742E-1	2.065959E-3	3.716500E-3	9.301741E-3	2.500338E-3	1.873623E-3	4.866246E-3	6.469652E-3
10/19/2017  17:43:31.962206	1.012743E+0	1.609208E-3	3.355015E-3	5.388938E-3	2.758755E-3	5.553540E-3	5.474044E-3	7.740390E-4
10/19/2017  17:43:31.963206	1.053443E+0	1.144277E-3	6.698938E-4	4.341064E-3	4.846018E-3	4.763849E-3	1.321767E-4	6.411450E-3
10/19/2017  17:43:31.964206	9.149748E-1	1.125936E-3	7.768190E-3	3.389035E-3	5.182031E-3	1.236518E-2	2.629930E-3	8.663711E-3
10/19/2017  17:43:31.965206	1.149788E+0	1.244937E-3	3.680445E-4	2.092437E-2	2.821489E-3	1.033551E-2	7.063315E-3	2.602853E-3
10/19/2017  17:43:31.966206	1.469558E+0	1.550720E-2	2.576142E-3	5.602192E-3	7.235650E-3	1.027666E-2	1.308119E-2	7.260801E-3
10/19/2017  17:43:31.967206	8.497863E-1	1.407499E-3	4.414664E-3	4.588050E-3	7.896308E-3	6.562756E-3	1.623080E-3	3.206484E-3
10/19/2017  17:43:31.968206	2.019609E-1	5.895378E-3	3.463693E-3	8.060349E-3	5.060143E-4	6.034542E-3	1.240315E-3	2.676304E-3
10/19/2017  17:43:31.969206	4.578514E-2	2.034332E-3	3.955841E-3	2.280409E-3	7.635913E-3	2.108074E-3	3.231853E-3	4.837577E-3
10/19/2017  17:43:31.970206	5.712743E-1	1.702324E-3	8.559908E-3	2.651847E-3	5.196384E-3	6.658878E-3	1.152788E-2	8.809927E-3
10/19/2017  17:43:31.971206	1.876918E-1	3.294112E-3	2.666514E-3	1.195820E-2	5.123019E-3	5.759429E-3	4.947922E-4	4.336745E-3
10/19/2017  17:43:31.972206	2.345236E-1	1.359020E-2	4.710749E-3	3.098062E-3	1.147036E-2	2.100696E-3	1.839353E-3	9.593769E-4
10/19/2017  17:43:31.973206	7.908650E-2	1.962147E-3	3.157106E-3	2.120349E-3	2.696719E-4	7.663789E-3	5.580102E-3	6.280317E-3
10/19/2017  17:43:31.974206	2.271271E-2	1.731755E-2	2.762881E-3	5.196601E-3	1.159230E-2	1.226468E-2	1.008753E-4	5.318862E-3
10/19/2017  17:43:31.975206	3.318553E-2	1.676680E-3	9.328193E-3	3.936400E-4	9.020399E-3	8.974882E-4	6.887255E-3	4.936557E-3
10/19/2017  17:43:31.976206	2.331817E-1	8.393928E-3	6.320603E-3	7.487769E-3	7.606481E-3	6.423804E-3	8.357746E-3	7.512912E-3
10/19/2017  17:43:31.977206	7.698809E-2	4.766490E-3	7.801600E-3	1.237469E-2	1.607847E-3	6.184687E-3	1.150273E-4	3.922541E-3
10/19/2017  17:43:31.978206	3.619643E-1	5.176656E-4	5.106777E-3	1.422159E-3	1.186149E-3	1.947160E-3	2.191354E-3	1.323736E-2
10/19/2017  17:43:31.979206	6.847492E-1	2.985992E-4	4.135788E-4	3.744444E-3	8.030542E-4	4.144232E-3	4.115906E-3	5.171878E-3
10/19/2017  17:43:31.980206	1.567526E+0	4.588034E-3	5.092507E-3	6.045363E-3	1.892341E-3	5.754014E-3	1.336851E-3	1.604305E-2
10/19/2017  17:43:31.981206	1.100651E+0	5.372908E-3	5.069828E-3	1.426426E-2	1.818440E-3	1.430611E-5	1.071767E-3	5.400922E-3
10/19/2017  17:43:31.982206	1.983436E-1	3.111519E-4	2.779772E-3	2.410508E-3	6.052817E-4	2.165395E-3	3.933540E-3	2.448515E-3
10/19/2017  17:43:31.983206	2.802470E+0	5.142121E-3	4.662816E-3	2.482492E-3	4.402809E-3	3.954375E-3	5.914926E-3	2.424034E-3
10/19/2017  17:43:31.984206	1.038582E+0	2.528787E-3	1.092128E-2	2.535495E-3	1.560438E-3	1.333574E-2	1.351058E-4	7.538418E-3
10/19/2017  17:43:31.985206	5.889445E-1	4.310280E-3	7.353153E-3	4.915942E-3	3.834948E-3	2.708738E-4	9.466591E-3	5.000095E-4
10/19/2017  17:43:31.986206	9.965216E-1	8.099793E-3	1.573978E-2	1.408149E-4	6.020871E-3	4.595680E-3	3.577479E-3	4.405254E-3
10/19/2017  17:43:31.987206	8.706970E-2	1.825556E-3	7.870690E-4	1.200543E-2	4.489535E-3	1.641567E-3	5.405353E-4	1.085833E-2
10/19/2017  17:43:31.988206	2.781315E-1	1.197152E-3	6.293182E-3	3.417159E-3	1.570925E-2	7.913963E-3	9.078333E-3	2.550445E-3
								
10/19/2017  17:43:31.989206	5.982563E-2	3.262827E-3	6.542120E-3	3.134136E-3	7.848598E-3	4.839255E-4	3.949008E-3	1.582739E-4
10/19/2017  17:43:31.990206	1.123545E-1	4.406473E-5	6.084687E-3	5.209907E-3	1.903280E-3	2.401420E-2	1.446682E-3	4.793573E-3
10/19/2017  17:43:31.991206	1.785619E-1	2.161846E-2	2.041709E-3	9.502559E-3	7.865710E-3	1.021796E-2	1.015375E-3	7.124785E-4
10/19/2017  17:43:31.992206	5.642050E-2	4.523450E-3	8.922277E-3	8.627555E-3	5.082196E-3	1.649256E-3	7.448363E-4	1.336357E-2
10/19/2017  17:43:31.993206	4.090958E-1	8.716329E-3	8.788554E-3	1.687823E-2	1.218111E-2	1.390167E-3	4.184152E-3	2.990501E-3
10/19/2017  17:43:31.994206	9.493589E-1	5.140742E-3	2.549712E-4	9.161736E-3	8.380159E-4	5.876008E-3	1.291645E-3	4.421511E-4
10/19/2017  17:43:31.995206	1.412461E+0	7.329864E-3	4.655082E-3	6.574498E-4	1.350181E-2	4.935671E-3	1.166303E-3	2.975490E-3
10/19/2017  17:43:31.996206	5.555355E-1	3.270234E-3	2.950012E-3	2.811746E-3	5.031427E-3	9.990388E-3	3.389891E-3	1.213214E-2
10/19/2017  17:43:31.997206	3.413517E-1	5.101776E-4	7.054106E-3	4.778981E-3	2.794142E-3	1.445602E-3	8.819467E-3	3.357181E-3
10/19/2017  17:43:31.998206	4.321674E-1	1.837032E-3	6.085014E-3	7.598499E-3	2.344004E-3	3.478163E-3	6.698973E-3	5.612730E-4
10/19/2017  17:43:31.999206	5.237504E-1	8.822214E-4	1.842657E-3	3.103020E-3	3.726760E-4	6.449821E-3	1.047284E-3	1.927627E-2
10/19/2017  17:43:32.000206	3.452993E-1	3.180472E-3	1.510352E-3	1.599259E-2	4.372149E-3	1.608633E-3	3.760943E-3	4.921974E-3
10/19/2017  17:43:32.001206	1.469545E-1	2.748332E-3	1.138798E-3	3.189057E-3	8.341439E-3	3.290510E-3	1.576891E-3	1.966855E-3
10/19/2017  17:43:32.002206	4.893903E-2	2.340503E-3	3.376608E-3	7.712594E-3	7.192113E-3	2.719425E-3	9.385978E-4	5.607798E-4
10/19/2017  17:43:32.003206	2.597521E-2	8.974485E-3	6.486569E-3	9.119423E-3	1.499370E-3	2.198737E-3	1.625241E-3	4.335581E-3
10/19/2017  17:43:32.004206	2.205326E-1	1.912637E-3	7.043133E-4	8.234953E-4	9.963328E-4	1.725779E-3	5.587583E-3	3.277325E-3
10/19/2017  17:43:32.005206	3.128443E-1	1.757758E-3	1.125064E-2	8.107767E-4	3.949685E-3	1.297957E-3	2.266040E-3	6.709916E-3
10/19/2017  17:43:32.006206	8.139287E-1	5.422733E-3	9.221263E-3	5.481225E-3	1.294400E-3	1.080447E-2	1.932541E-2	1.042811E-3
10/19/2017  17:43:32.007206	6.671590E-1	9.645230E-3	1.944224E-2	5.644401E-6	1.027272E-3	4.538934E-3	2.414702E-3	3.250691E-3
10/19/2017  17:43:32.008206	2.949188E-1	3.462515E-3	4.961219E-3	7.009533E-3	7.839959E-4	8.354674E-4	2.445869E-4	9.768809E-3
10/19/2017  17:43:32.009206	1.737612E-1	1.861708E-3	1.674070E-4	3.549953E-3	2.912288E-3	1.241843E-2	4.835998E-3	1.112365E-3
10/19/2017  17:43:32.010206	7.668998E-1	1.807412E-2	2.530900E-3	3.085400E-3	2.327444E-3	3.343936E-3	3.046511E-3	3.912710E-3
10/19/2017  17:43:32.011206	2.433846E-2	3.548039E-3	7.147710E-3	7.341249E-3	7.600902E-3	1.846465E-2	5.019470E-3	3.580252E-3
10/19/2017  17:43:32.012206	1.159303E+0	1.483120E-2	7.349513E-4	8.699845E-4	4.192467E-3	7.524628E-4	5.076259E-3	5.118180E-4
10/19/2017  17:43:32.013206	2.646469E-1	3.894169E-3	1.973228E-3	1.546499E-3	1.098302E-3	1.002325E-2	4.796059E-4	7.265214E-3
10/19/2017  17:43:32.014206	1.154390E+0	5.674250E-3	1.911625E-3	5.915096E-3	1.474274E-3	8.011890E-3	5.194522E-3	1.176044E-3
10/19/2017  17:43:32.015206	1.410763E+0	2.423457E-3	5.005474E-4	6.878274E-3	8.104235E-3	2.561741E-3	4.918978E-3	4.021003E-3
10/19/2017  17:43:32.016206	7.510752E-1	5.058517E-3	1.884966E-4	8.278299E-3	2.145514E-2	2.130110E-3	2.962339E-3	6.052534E-3
10/19/2017  17:43:32.017206	5.134731E-1	9.007379E-3	8.709055E-5	1.125075E-5	7.079020E-4	9.979526E-3	2.491181E-4	4.003562E-3
10/19/2017  17:43:32.018206	3.078102E-2	1.118475E-2	3.284639E-4	4.684612E-3	5.418794E-3	3.305989E-3	4.393926E-3	3.101648E-3
10/19/2017  17:43:32.019206	1.847198E-1	5.729394E-5	1.460521E-2	1.249319E-2	4.178451E-5	4.825906E-4	1.280902E-2	4.746535E-3
10/19/2017  17:43:32.020206	3.902183E-1	2.362115E-3	7.522724E-4	1.111966E-3	2.657944E-5	4.280825E-4	3.826826E-3	1.136111E-2
10/19/2017  17:43:32.021206	1.463011E+0	4.981629E-3	1.634225E-3	2.029478E-2	8.793924E-5	3.802078E-4	1.501320E-3	5.125180E-3
								
10/19/2017  17:43:32.022206	2.837633E-1	5.258710E-3	1.042815E-2	1.103819E-2	2.206280E-3	6.691912E-3	3.364031E-3	1.194246E-2
10/19/2017  17:43:32.023206	3.622789E-1	2.173224E-3	9.948226E-3	1.169047E-2	5.274603E-3	6.143308E-3	6.606415E-3	4.193672E-3
10/19/2017  17:43:32.024206	5.843282E-1	1.218368E-2	3.672726E-3	4.325744E-3	2.164917E-3	5.601423E-4	1.410788E-3	1.439309E-3
10/19/2017  17:43:32.025206	2.999307E-1	6.256184E-3	6.458839E-4	8.885833E-4	4.992193E-4	1.836978E-3	5.858401E-3	9.083603E-4
10/19/2017  17:43:32.026206	2.985678E-1	7.775853E-3	4.120809E-4	6.021330E-4	4.294179E-3	5.530061E-3	4.925232E-3	4.148331E-3
10/19/2017  17:43:32.027206	2.772930E-1	1.211503E-2	2.138191E-3	5.031654E-3	1.087549E-3	2.342413E-3	2.959796E-3	8.394157E-3
10/19/2017  17:43:32.028206	1.478853E-1	8.657500E-3	1.834471E-2	1.679913E-3	6.102917E-3	5.077260E-3	2.591891E-3	4.508248E-3
10/19/2017  17:43:32.029206	1.646958E-1	5.095478E-3	1.384910E-3	5.890127E-3	1.967630E-3	4.091433E-4	7.118518E-3	3.347998E-3
10/19/2017  17:43:32.030206	5.471345E-2	3.289638E-4	5.722160E-3	5.281793E-4	8.795381E-3	2.719684E-3	8.159839E-3	2.944582E-3
10/19/2017  17:43:32.031206	1.006905E-1	4.924380E-3	7.093731E-3	6.741567E-4	4.310975E-3	9.411475E-3	2.288430E-3	6.807933E-3
10/19/2017  17:43:32.032206	2.856722E-1	6.156986E-4	1.481764E-3	7.837207E-3	1.063076E-3	1.088109E-2	3.777890E-4	9.375738E-4
10/19/2017  17:43:32.033206	9.891336E-2	6.400935E-3	9.432164E-4	7.279165E-3	7.959332E-3	9.525445E-3	6.735712E-3	1.715320E-3
10/19/2017  17:43:32.034206	1.387836E-1	5.504282E-4	8.744685E-3	8.136320E-3	7.430550E-3	3.284561E-3	3.709379E-3	3.948187E-3
10/19/2017  17:43:32.035206	4.730569E-1	2.598354E-3	6.579925E-3	2.112568E-2	1.608475E-3	9.090436E-3	1.089657E-2	1.048193E-2
10/19/2017  17:43:32.036206	6.225635E-1	7.424590E-3	5.425934E-3	1.267265E-2	5.700877E-3	6.293032E-3	2.729757E-4	5.197610E-3
10/19/2017  17:43:32.037206	3.223844E-2	5.551700E-4	5.011455E-3	3.673328E-3	1.400707E-2	5.151689E-4	5.069585E-3	2.039138E-3
10/19/2017  17:43:32.038206	8.698715E-1	2.624110E-3	2.095945E-3	1.573796E-2	4.679098E-3	6.745524E-3	6.739796E-3	7.693659E-3
10/19/2017  17:43:32.039206	1.062873E+0	2.692770E-3	7.426712E-3	5.509782E-3	8.736676E-3	5.918476E-3	3.636901E-3	1.695517E-2
10/19/2017  17:43:32.040206	4.295999E-1	2.494466E-3	3.354561E-3	1.643918E-2	6.720125E-3	4.506141E-3	4.001369E-3	4.518457E-3
10/19/2017  17:43:32.041206	2.921593E-1	1.175594E-2	3.097595E-3	4.981504E-3	9.614703E-4	7.579487E-4	1.064412E-3	5.435124E-3
10/19/2017  17:43:32.042206	8.052909E-2	4.429339E-3	2.853909E-3	1.676583E-2	7.589560E-4	1.119442E-2	5.585910E-3	4.438379E-3
10/19/2017  17:43:32.043206	5.338601E-2	1.109261E-2	1.200128E-2	2.522067E-3	1.773722E-3	1.092060E-4	7.008317E-3	3.497529E-3
10/19/2017  17:43:32.044206	1.179890E+0	2.154337E-4	8.647369E-4	9.491349E-3	7.948712E-4	2.417914E-3	5.779427E-3	1.019327E-2
10/19/2017  17:43:32.045206	3.036912E-1	1.980736E-3	3.903508E-3	1.117970E-3	1.113100E-2	5.028401E-3	7.057774E-3	5.341074E-3
10/19/2017  17:43:32.046206	5.267520E-1	5.560632E-3	6.170594E-3	1.628273E-3	2.378075E-3	4.318711E-4	3.208676E-3	7.320307E-3
10/19/2017  17:43:32.047206	7.008199E-1	1.803275E-4	7.612333E-3	1.602093E-3	2.070847E-3	2.716909E-3	2.183507E-3	1.568435E-3
10/19/2017  17:43:32.048206	1.015764E+0	4.990267E-3	2.982143E-3	7.771478E-4	1.786974E-3	7.095567E-3	2.856106E-4	1.351034E-3
10/19/2017  17:43:32.049206	9.897608E-1	1.982702E-3	1.662610E-2	2.778446E-3	3.874283E-3	1.071113E-3	2.317081E-3	5.831609E-3
10/19/2017  17:43:32.050206	5.387850E-1	5.932567E-4	4.547491E-3	2.574361E-4	8.496509E-3	3.726914E-3	4.505830E-3	4.867124E-3
10/19/2017  17:43:32.051206	4.034744E-1	1.915185E-3	5.768834E-3	4.952074E-4	9.553325E-5	3.061638E-3	3.971796E-3	3.977490E-3
10/19/2017  17:43:32.052206	9.640812E-2	8.706381E-3	2.738555E-3	7.008077E-4	2.357587E-3	2.233393E-3	3.473984E-3	3.159453E-3
10/19/2017  17:43:32.053206	3.902012E-1	2.045766E-3	6.892641E-3	3.221552E-3	4.243118E-3	2.017793E-3	7.695815E-3	1.165048E-2
10/19/2017  17:43:32.054206	5.874875E-1	8.806467E-3	9.028854E-4	4.051566E-3	1.065896E-2	1.814506E-3	1.812013E-3	1.690390E-3
								
10/19/2017  17:43:32.055206	1.378659E-1	2.719853E-3	1.858240E-3	3.907484E-3	2.661611E-3	6.310000E-3	3.207004E-3	3.604915E-3
10/19/2017  17:43:32.056206	5.460673E-1	4.822895E-3	2.843821E-3	5.931495E-3	1.627806E-2	6.356613E-3	1.940258E-3	1.123228E-2
10/19/2017  17:43:32.057206	3.052201E-1	8.820211E-3	7.281248E-3	1.799122E-3	7.612453E-3	7.650912E-3	5.431556E-3	4.947126E-3
10/19/2017  17:43:32.058206	8.537277E-2	1.133464E-2	1.726210E-3	8.085048E-3	9.010033E-3	7.755482E-3	4.775429E-3	1.902405E-3
10/19/2017  17:43:32.059206	3.402322E-1	2.163309E-3	1.237863E-2	7.076849E-3	4.003165E-3	4.333704E-3	5.364444E-3	7.000908E-4
10/19/2017  17:43:32.060206	1.059511E-1	6.559434E-3	6.297827E-3	3.600469E-3	8.971083E-4	9.652011E-4	1.506208E-4	1.461217E-2
10/19/2017  17:43:32.061206	7.036582E-1	6.198439E-3	5.669646E-3	2.669131E-2	1.756386E-3	1.581667E-3	2.199292E-3	2.792695E-3
10/19/2017  17:43:32.062206	1.812207E-1	1.795551E-3	1.956895E-3	3.300939E-3	1.643812E-3	1.380472E-3	9.888737E-3	2.599419E-3
10/19/2017  17:43:32.063206	2.804814E-2	8.554009E-3	9.838589E-4	1.765246E-3	1.533509E-3	1.192417E-3	3.623771E-3	1.275515E-4
10/19/2017  17:43:32.064206	3.226095E-1	6.912989E-3	8.166304E-3	1.339516E-3	9.232920E-4	3.669868E-3	6.428804E-3	8.987121E-3
10/19/2017  17:43:32.065206	2.268287E-1	1.131635E-3	2.244930E-3	9.479743E-4	6.429254E-4	7.201584E-4	3.172637E-3	9.185031E-3
10/19/2017  17:43:32.066206	5.337731E-1	1.731220E-2	3.021669E-3	1.113681E-2	3.917928E-4	2.894140E-3	3.732136E-4	3.418407E-3
10/19/2017  17:43:32.067206	1.340466E-1	4.333168E-3	2.769597E-3	1.582327E-4	4.529687E-3	2.357428E-3	6.689728E-3	3.846324E-3
10/19/2017  17:43:32.068206	8.544211E-2	3.114943E-3	6.853099E-3	2.301427E-4	3.956143E-3	2.817832E-3	8.836205E-4	4.112088E-3
10/19/2017  17:43:32.069206	7.582233E-1	7.038189E-3	6.172896E-3	7.333053E-3	3.624550E-3	4.539366E-3	6.403042E-3	6.142428E-3
10/19/2017  17:43:32.070206	1.139229E-1	6.141680E-3	3.087401E-3	3.140192E-3	6.145185E-4	6.034940E-3	1.543162E-3	6.259115E-3
10/19/2017  17:43:32.071206	2.631989E-1	1.492491E-2	1.911187E-3	2.562315E-4	2.747420E-3	4.495581E-3	3.578321E-3	4.398185E-3
10/19/2017  17:43:32.072206	1.812160E-1	3.570849E-3	5.595983E-3	6.891811E-3	4.876796E-3	6.772564E-4	5.706977E-4	1.574347E-2
10/19/2017  17:43:32.073206	3.080192E-1	5.151336E-3	1.189769E-2	5.884528E-3	4.242562E-3	9.009348E-3	6.680006E-3	5.281673E-3
10/19/2017  17:43:32.074206	3.047323E-1	5.300918E-3	6.808354E-4	2.311154E-4	1.045327E-3	3.060889E-3	5.985084E-3	3.810700E-4
10/19/2017  17:43:32.075206	1.488459E-1	1.411739E-2	4.164998E-3	1.141375E-4	8.216260E-4	2.023791E-3	2.086624E-3	9.874028E-3
10/19/2017  17:43:32.076206	4.537521E-1	2.684157E-3	3.490023E-3	7.029729E-3	8.774580E-3	7.176786E-4	4.231156E-3	9.377259E-4
10/19/2017  17:43:32.077206	9.501421E-1	2.361831E-3	4.132724E-3	3.406432E-3	9.759611E-3	3.036024E-3	3.367181E-3	5.413714E-3
10/19/2017  17:43:32.078206	8.674434E-1	6.611875E-3	5.854530E-3	1.856180E-3	1.278238E-3	6.751876E-3	4.285847E-3	4.917528E-3
10/19/2017  17:43:32.079206	1.674738E-1	8.615526E-3	9.558846E-3	1.613620E-3	5.803471E-3	1.080523E-2	8.388067E-3	4.353556E-4
10/19/2017  17:43:32.080206	1.346805E+0	2.687860E-3	1.087577E-2	1.311814E-2	1.176098E-2	2.134309E-3	4.632199E-3	2.058462E-3
10/19/2017  17:43:32.081206	8.914306E-1	4.717567E-3	2.385404E-3	7.346954E-4	1.657345E-3	9.941215E-3	3.115521E-3	8.835694E-3
10/19/2017  17:43:32.082206	4.588848E-1	5.462168E-3	4.219082E-3	3.593625E-2	3.619286E-3	1.039823E-2	2.623243E-3	6.617177E-3
10/19/2017  17:43:32.083206	8.346065E-2	7.055839E-3	6.013775E-3	2.658084E-3	8.864212E-3	1.747893E-3	4.856788E-3	8.468694E-3
10/19/2017  17:43:32.084206	2.226090E-1	3.528424E-3	5.681668E-4	4.904339E-3	1.785087E-3	5.620263E-3	4.118070E-3	4.755899E-3
10/19/2017  17:43:32.085206	3.511077E-2	1.591711E-2	1.236391E-2	4.960943E-3	3.746190E-3	1.162659E-2	3.588191E-3	1.017991E-2
10/19/2017  17:43:32.086206	8.198582E-2	1.758469E-3	3.562514E-3	3.161895E-3	4.040267E-3	4.354891E-3	7.741402E-3	3.988146E-3
10/19/2017  17:43:32.087206	4.532464E-2	9.082759E-4	1.702703E-2	2.996558E-3	3.558839E-3	6.154252E-3	6.482172E-3	1.031813E-3
								
10/19/2017  17:43:32.088206	1.344064E-1	6.209241E-3	2.250600E-3	1.855994E-3	7.634021E-4	1.762556E-3	4.043439E-3	8.563065E-4
10/19/2017  17:43:32.089206	4.730997E-1	4.237385E-3	9.219310E-3	1.282643E-2	1.248054E-2	7.951058E-3	5.905059E-3	8.674693E-3
10/19/2017  17:43:32.090206	4.599278E-1	1.339375E-3	8.413870E-3	4.031400E-3	5.918008E-3	2.037839E-3	1.953603E-3	4.440539E-3
10/19/2017  17:43:32.091206	3.272800E-1	3.474533E-3	2.531997E-3	1.216147E-3	3.170073E-4	1.339973E-2	7.803048E-3	6.146847E-3
10/19/2017  17:43:32.092206	4.291776E-1	2.295281E-2	8.176290E-5	1.163377E-3	1.200182E-2	2.907331E-3	5.094815E-3	4.195554E-3
10/19/2017  17:43:32.093206	1.681978E-2	6.459970E-3	2.706170E-3	1.235669E-3	6.226499E-4	9.685412E-3	1.920061E-3	5.830074E-3
10/19/2017  17:43:32.094206	5.412924E-2	1.463594E-3	7.259000E-3	6.130262E-3	3.461013E-4	5.770943E-3	1.251346E-2	2.136608E-3
10/19/2017  17:43:32.095206	2.590719E-1	3.479095E-3	7.712184E-3	1.465374E-2	2.446891E-3	2.408363E-3	8.188341E-3	5.044173E-4
10/19/2017  17:43:32.096206	1.496669E-1	6.575255E-3	7.934963E-4	6.440382E-3	1.460261E-2	1.219697E-2	2.229699E-3	9.771030E-3
10/19/2017  17:43:32.097206	4.365223E-1	9.693118E-4	9.824313E-4	1.532559E-3	7.080756E-4	1.337098E-3	2.856413E-3	3.578958E-3
10/19/2017  17:43:32.098206	2.954600E-2	8.886815E-4	1.199314E-3	1.239877E-3	7.702747E-3	1.254493E-3	6.915902E-3	1.017915E-2
10/19/2017  17:43:32.099206	1.886275E-1	3.153726E-3	1.104672E-2	8.007233E-3	8.844238E-3	3.436702E-3	3.620566E-3	7.512991E-4
10/19/2017  17:43:32.100206	4.293970E-1	6.680041E-3	2.121264E-4	4.261922E-3	9.093887E-3	6.474289E-3	8.561314E-3	2.990719E-3
10/19/2017  17:43:32.101206	3.733616E-1	1.462664E-3	6.630532E-3	1.305178E-2	7.765213E-3	6.285206E-3	7.073729E-3	7.200005E-3
10/19/2017  17:43:32.102206	5.436168E-1	6.013289E-3	1.110241E-2	1.793031E-3	2.854030E-3	2.971617E-3	1.068443E-2	3.378138E-3
10/19/2017  17:43:32.103206	1.022919E+0	1.916201E-3	2.316405E-4	7.778098E-3	8.586556E-5	2.461554E-3	1.391817E-2	7.626851E-3
10/19/2017  17:43:32.104206	7.674547E-2	3.094637E-3	3.893589E-4	1.000098E-2	6.961939E-3	1.991563E-3	9.481404E-5	5.268352E-3
10/19/2017  17:43:32.105206	4.451888E-2	2.620200E-3	7.558712E-3	1.517500E-3	3.588830E-3	5.470432E-3	2.416983E-3	7.285840E-3
10/19/2017  17:43:32.106206	3.034486E-1	1.422126E-2	5.147213E-4	1.006642E-3	6.291180E-3	2.438150E-5	5.014623E-3	3.784427E-3
10/19/2017  17:43:32.107206	3.904766E-1	4.471223E-3	3.231985E-4	3.902564E-3	6.547755E-3	4.591447E-3	1.216449E-2	3.927479E-3
10/19/2017  17:43:32.108206	1.369179E+0	3.877301E-3	9.223994E-3	5.676768E-3	3.271339E-3	9.298762E-4	5.504934E-3	3.630534E-3
10/19/2017  17:43:32.109206	1.052474E+0	1.360747E-3	7.983692E-4	9.456282E-3	5.149469E-3	1.418321E-3	2.237137E-4	6.180769E-4
10/19/2017  17:43:32.110206	2.642271E-1	5.927919E-3	4.020084E-3	3.159843E-3	1.979873E-3	1.040942E-3	2.750627E-3	1.132805E-2
10/19/2017  17:43:32.111206	1.489925E-2	2.022224E-3	6.005867E-3	2.231455E-3	1.610983E-3	6.979528E-4	1.862130E-4	4.447337E-3
10/19/2017  17:43:32.112206	1.676332E-1	1.715976E-3	2.712527E-3	6.788165E-3	5.773720E-3	4.299222E-3	9.729890E-3	6.057742E-3
10/19/2017  17:43:32.113206	3.609617E-1	3.779732E-3	1.220186E-4	3.493706E-3	4.470540E-3	1.465541E-3	1.317212E-3	2.655237E-3
10/19/2017  17:43:32.114206	3.682005E-1	1.545929E-3	1.884714E-4	4.427643E-4	9.892657E-4	6.081286E-3	1.149037E-3	2.747527E-4
10/19/2017  17:43:32.115206	9.683804E-1	1.359830E-3	9.628210E-3	4.876435E-3	1.501028E-2	1.788762E-3	8.488615E-3	4.261827E-3
10/19/2017  17:43:32.116206	5.908996E-2	3.528058E-3	3.577704E-3	8.120684E-4	1.466024E-3	1.409528E-3	1.658162E-4	3.670679E-3
10/19/2017  17:43:32.117206	1.246952E+0	8.737571E-3	4.020391E-3	7.984903E-3	6.037308E-3	5.966013E-3	2.214557E-3	5.682093E-3
10/19/2017  17:43:32.118206	1.396670E+0	9.082430E-3	1.276545E-2	7.126369E-3	6.599294E-3	2.781253E-3	9.847510E-3	7.328345E-3
10/19/2017  17:43:32.119206	4.942139E-1	3.000626E-3	1.279835E-2	1.090778E-3	7.953679E-4	4.640626E-3	3.466604E-3	1.567070E-2
10/19/2017  17:43:32.120206	5.903011E-1	4.544800E-3	3.179588E-3	1.343591E-2	4.143951E-3	8.389847E-4	5.356098E-3	7.909566E-3
								
10/19/2017  17:43:32.121206	7.503897E-1	3.165121E-3	2.057240E-3	2.150817E-3	1.108462E-3	1.548267E-3	7.159762E-3	4.389508E-3
10/19/2017  17:43:32.122206	4.819510E-1	7.321371E-3	5.590770E-4	1.917533E-2	8.510775E-4	3.550730E-3	3.393493E-3	1.347263E-3
10/19/2017  17:43:32.123206	1.736663E-1	5.652660E-3	6.604734E-3	7.533223E-3	2.967701E-3	2.856757E-3	5.282867E-3	1.253440E-3
10/19/2017  17:43:32.124206	1.015636E-1	1.957559E-4	8.754823E-4	1.838871E-2	7.071288E-3	2.462136E-3	4.479340E-3	1.239562E-3
10/19/2017  17:43:32.125206	7.137190E-2	1.146135E-2	5.375665E-3	1.014783E-2	8.333639E-3	7.107882E-3	6.082700E-3	1.349674E-3
10/19/2017  17:43:32.126206	6.566654E-2	1.394836E-2	2.086125E-3	5.633235E-3	7.215818E-3	8.303622E-3	1.204773E-2	1.154241E-3
10/19/2017  17:43:32.127206	4.016097E-1	1.956561E-4	2.184243E-2	4.495061E-3	3.831547E-3	9.569939E-3	8.817661E-3	3.768015E-3
10/19/2017  17:43:32.128206	2.454167E-1	2.587844E-3	3.220432E-4	5.995718E-3	3.260695E-3	8.218047E-3	6.582252E-4	5.556323E-3
10/19/2017  17:43:32.129206	6.207210E-1	4.589532E-3	5.060336E-3	6.882082E-3	6.662598E-3	2.280261E-4	3.105116E-3	9.400034E-3
10/19/2017  17:43:32.130206	1.536017E-1	3.889580E-3	7.393527E-3	6.003301E-3	9.083204E-4	3.678490E-4	9.835821E-3	3.802682E-3
10/19/2017  17:43:32.131206	7.040250E-1	3.783327E-3	1.456495E-3	4.196429E-3	3.986329E-3	9.861629E-3	9.678405E-4	3.243406E-3
10/19/2017  17:43:32.132206	7.956929E-1	7.904635E-3	8.292293E-3	3.617925E-3	1.278763E-2	3.737304E-3	7.518081E-4	8.988865E-3
10/19/2017  17:43:32.133206	1.669445E-1	5.102381E-3	2.293270E-3	1.020481E-2	1.300076E-3	5.523149E-3	6.470451E-3	5.195406E-3
10/19/2017  17:43:32.134206	2.308143E-1	1.203994E-2	6.558242E-3	8.628412E-3	1.552068E-2	9.438330E-3	3.149290E-3	7.467157E-3
10/19/2017  17:43:32.135206	9.068911E-1	6.542791E-4	6.318647E-3	4.551650E-3	7.975966E-3	3.272212E-3	2.052862E-3	1.720488E-3
10/19/2017  17:43:32.136206	1.589198E-1	6.681693E-3	7.791195E-3	3.963736E-3	4.321892E-3	4.344814E-3	4.102009E-3	1.511718E-3
10/19/2017  17:43:32.137206	2.273013E+0	8.145179E-3	5.125149E-3	1.078786E-3	5.886928E-3	5.649579E-3	3.578922E-3	3.369731E-3
10/19/2017  17:43:32.138206	2.620082E-1	7.113531E-3	2.732317E-3	3.314869E-3	1.213491E-2	4.685799E-3	4.003456E-3	4.380786E-4
10/19/2017  17:43:32.139206	6.660147E-1	1.222895E-3	7.019402E-3	7.522325E-3	6.201464E-3	8.808185E-4	1.018815E-3	2.628760E-3
10/19/2017  17:43:32.140206	7.570865E-1	6.140326E-3	8.191452E-3	1.010483E-2	4.154805E-3	7.941756E-3	3.869575E-3	7.265833E-3
10/19/2017  17:43:32.141206	5.075402E-1	1.742948E-3	6.934203E-3	1.962582E-2	1.201642E-3	4.463118E-3	1.031178E-2	6.200702E-3
10/19/2017  17:43:32.142206	5.654119E-3	3.720509E-3	8.285970E-3	4.638235E-3	3.382939E-3	8.891298E-4	5.436372E-3	5.315807E-4
10/19/2017  17:43:32.143206	3.125343E-1	6.369471E-3	2.340936E-3	2.048302E-2	4.925072E-4	3.079007E-3	4.683454E-3	4.289174E-3
10/19/2017  17:43:32.144206	3.698427E-1	6.233045E-3	5.081353E-3	1.508544E-3	7.426772E-3	2.136948E-4	6.952931E-4	1.298970E-3
10/19/2017  17:43:32.145206	9.678229E-1	4.417734E-4	2.747759E-3	3.744415E-3	8.801772E-4	2.467258E-3	1.778654E-3	5.940318E-3
10/19/2017  17:43:32.146206	1.082854E-1	2.020391E-4	2.320748E-3	3.777024E-3	8.517185E-3	5.024947E-3	6.200146E-3	6.740059E-3
10/19/2017  17:43:32.147206	7.021618E-1	2.354171E-3	7.452912E-3	5.413141E-3	7.113572E-3	6.632375E-3	8.865100E-3	1.328471E-3
10/19/2017  17:43:32.148206	1.675374E+0	1.861973E-4	1.096741E-2	3.133104E-4	1.507588E-3	3.222671E-3	4.562880E-4	5.814448E-3
10/19/2017  17:43:32.149206	1.388784E+0	9.382907E-3	7.290477E-3	4.919573E-4	5.609094E-3	2.061662E-3	2.002982E-3	2.171057E-3
10/19/2017  17:43:32.150206	1.374708E-1	3.329527E-3	6.284650E-3	1.107477E-2	2.524735E-3	5.189051E-3	2.959662E-3	6.580974E-3
10/19/2017  17:43:32.151206	1.683175E+0	1.122237E-2	6.369907E-3	7.407663E-3	1.410377E-2	5.136179E-3	2.445941E-3	8.693274E-4
10/19/2017  17:43:32.152206	1.762153E+0	2.339521E-3	6.416733E-3	1.129181E-2	2.702883E-4	2.560705E-3	4.317230E-3	6.980510E-4
10/19/2017  17:43:32.153206	9.129966E-1	8.826954E-3	3.119637E-3	4.300622E-3	4.423265E-3	2.666110E-3	3.502019E-3	5.429852E-4
								
10/19/2017  17:43:32.154206	4.025528E-1	2.190209E-3	9.098193E-3	3.640426E-3	5.745326E-3	2.390537E-3	2.757209E-3	1.940161E-3
10/19/2017  17:43:32.155206	3.672304E-1	1.191005E-2	1.747180E-3	1.034585E-2	9.607027E-3	6.821788E-3	4.948063E-3	1.680779E-3
10/19/2017  17:43:32.156206	1.702122E-1	4.407400E-3	8.584700E-3	2.846169E-3	6.029266E-3	5.901625E-3	4.408837E-3	9.036576E-4
10/19/2017  17:43:32.157206	3.200146E-2	1.352938E-2	2.134157E-3	6.963209E-3	1.217922E-2	2.558962E-3	5.464633E-3	7.424071E-4
10/19/2017  17:43:32.158206	5.149137E-2	2.319364E-3	4.173705E-3	1.309104E-2	6.244894E-3	5.004026E-3	4.395938E-3	1.747179E-3
10/19/2017  17:43:32.159206	3.271907E-1	3.016245E-3	8.212479E-3	5.346524E-4	1.684438E-3	4.336422E-3	5.947691E-3	3.192300E-3
10/19/2017  17:43:32.160206	2.402528E-1	9.858383E-3	6.894247E-3	1.208634E-2	1.006213E-3	9.662142E-4	5.293282E-3	5.000427E-3
10/19/2017  17:43:32.161206	9.235853E-2	1.486905E-3	3.696655E-3	6.238612E-4	9.306107E-4	7.631718E-4	4.688593E-3	4.126489E-3
10/19/2017  17:43:32.162206	3.350225E-1	1.396269E-3	3.764762E-3	4.949141E-3	1.491928E-3	8.796714E-3	3.305623E-3	3.702040E-3
10/19/2017  17:43:32.163206	8.162395E-1	5.989282E-3	5.350507E-3	8.364820E-4	3.520073E-3	3.973569E-4	1.005766E-2	9.312025E-4
10/19/2017  17:43:32.164206	8.406838E-2	7.467308E-3	2.761405E-3	1.285071E-3	5.382060E-3	1.142256E-2	6.298066E-3	3.770496E-3
10/19/2017  17:43:32.165206	6.057970E-1	1.012366E-2	4.443097E-3	1.570773E-2	9.243132E-3	2.126528E-3	6.339375E-3	8.695793E-3
10/19/2017  17:43:32.166206	4.041055E-2	3.189718E-3	3.452978E-3	1.800769E-3	8.741309E-3	2.801465E-3	2.928655E-3	2.766412E-3
10/19/2017  17:43:32.167206	3.024437E-1	1.210053E-2	1.385940E-2	1.709832E-3	5.107748E-3	6.942618E-3	2.347967E-3	2.298760E-3
10/19/2017  17:43:32.168206	4.704251E-2	3.929807E-3	7.291132E-3	3.961868E-3	9.781949E-3	3.699106E-3	2.569697E-3	7.492483E-3
10/19/2017  17:43:32.169206	1.300513E-1	1.091311E-3	3.053708E-3	5.827169E-3	5.849315E-3	1.503662E-2	3.205663E-4	1.646367E-3
10/19/2017  17:43:32.170206	1.713194E-1	5.708755E-3	4.752912E-3	2.042671E-3	1.166213E-2	1.303165E-3	7.458643E-3	9.954159E-4
10/19/2017  17:43:32.171206	5.793315E-1	9.182608E-3	3.252354E-3	6.350719E-3	5.448447E-4	1.749523E-2	2.971814E-3	5.572392E-3
10/19/2017  17:43:32.172206	4.783743E-1	2.948934E-3	5.326138E-3	8.836016E-3	4.194691E-3	5.468234E-4	4.612379E-3	2.359218E-3
10/19/2017  17:43:32.173206	7.074897E-1	2.390479E-3	2.338544E-3	5.071416E-4	1.113316E-3	1.385328E-2	1.621301E-3	4.290190E-3
10/19/2017  17:43:32.174206	2.604413E-1	7.154651E-3	2.124721E-3	1.594940E-2	1.091690E-2	4.556542E-3	1.403991E-3	1.156640E-3
10/19/2017  17:43:32.175206	8.324939E-1	3.596641E-3	1.129967E-2	5.465225E-3	7.194632E-3	9.745124E-4	3.485272E-3	3.423699E-3
10/19/2017  17:43:32.176206	1.320521E+0	8.005310E-3	2.533238E-3	1.888418E-2	1.276225E-2	1.269249E-2	2.907878E-3	4.067115E-3
10/19/2017  17:43:32.177206	9.015700E-1	2.287398E-3	4.940798E-3	7.488586E-3	3.700265E-3	1.389412E-3	4.645387E-3	1.345714E-3
10/19/2017  17:43:32.178206	1.982133E-1	2.581959E-3	4.191004E-3	7.082736E-4	1.690942E-3	3.534199E-3	6.311379E-3	1.237904E-3
10/19/2017  17:43:32.179206	1.370587E+0	3.595296E-4	1.056417E-2	2.961299E-3	8.598877E-3	1.704158E-3	4.069737E-3	3.476266E-3
10/19/2017  17:43:32.180206	1.947977E+0	5.206707E-3	4.947651E-4	2.486587E-3	2.624289E-4	9.032298E-4	1.120827E-3	2.173656E-2
10/19/2017  17:43:32.181206	4.598724E-1	1.072431E-4	7.533908E-3	1.436992E-2	6.815129E-3	3.105742E-3	1.310412E-2	5.400176E-4
10/19/2017  17:43:32.182206	2.271193E-1	2.262184E-3	1.694049E-3	3.555470E-4	6.056982E-3	4.936180E-3	7.789638E-3	2.179341E-2
10/19/2017  17:43:32.183206	5.073371E-1	7.664415E-3	3.281601E-3	1.857781E-2	5.161594E-3	7.634914E-3	2.006976E-3	9.646377E-3
10/19/2017  17:43:32.184206	7.274037E-1	1.365822E-2	1.916737E-3	8.611473E-3	7.408518E-3	4.148138E-3	5.260938E-3	1.050272E-3
10/19/2017  17:43:32.185206	1.298422E+0	4.855752E-3	1.616763E-3	7.000746E-3	3.156704E-3	1.058143E-2	5.041897E-3	6.264297E-3
10/19/2017  17:43:32.186206	3.518017E-1	5.844441E-4	1.001516E-3	3.758581E-3	9.734123E-3	7.515789E-3	6.702244E-3	6.821950E-4
								
10/19/2017  17:43:32.187206	5.694386E-1	4.178326E-3	1.479118E-3	3.719152E-3	1.097337E-3	1.688554E-3	8.364820E-3	1.715750E-3
10/19/2017  17:43:32.188206	1.955294E-1	1.207881E-3	3.467281E-3	1.718645E-3	1.554077E-3	7.966189E-3	2.383455E-3	1.381557E-3
10/19/2017  17:43:32.189206	6.149463E-1	3.423477E-3	4.102741E-3	1.632873E-3	1.442585E-3	2.687467E-3	2.111584E-3	1.267889E-3
10/19/2017  17:43:32.190206	2.094073E-1	1.766891E-3	1.282118E-2	1.550811E-3	5.710620E-3	1.403897E-2	1.860484E-3	3.524348E-3
10/19/2017  17:43:32.191206	6.172345E-1	8.822458E-4	1.044955E-3	8.507850E-3	7.089542E-3	5.859210E-5	7.740722E-3	4.176147E-3
10/19/2017  17:43:32.192206	8.466329E-1	6.252206E-3	3.427279E-3	2.587074E-3	9.210806E-4	9.470042E-3	6.121224E-4	5.977987E-3
10/19/2017  17:43:32.193206	1.054828E+0	8.864764E-3	7.756956E-3	4.810015E-3	1.694293E-3	1.304035E-3	7.701351E-3	6.624375E-3
10/19/2017  17:43:32.194206	3.708038E-1	5.181693E-3	1.959147E-3	3.986309E-3	6.246989E-3	8.083502E-3	5.111664E-3	1.020219E-2
10/19/2017  17:43:32.195206	4.464037E-1	3.528514E-4	7.674126E-3	8.846627E-4	2.988988E-3	7.361438E-3	1.122977E-2	1.033111E-2
10/19/2017  17:43:32.196206	5.890381E-1	7.391234E-3	1.684063E-3	4.113055E-3	6.859070E-3	6.321789E-3	9.496269E-3	4.854040E-4
10/19/2017  17:43:32.197206	5.824646E-2	7.871732E-4	8.113386E-3	5.759607E-3	8.360588E-3	6.353557E-3	1.210399E-3	4.965007E-3
10/19/2017  17:43:32.198206	3.704088E-1	3.031677E-3	8.313587E-5	7.020382E-3	4.730073E-3	6.234870E-4	5.826778E-3	6.768101E-4
10/19/2017  17:43:32.199206	5.539514E-2	4.474757E-3	2.341144E-3	8.427075E-3	1.720364E-2	6.594910E-3	2.345545E-3	1.483855E-2
10/19/2017  17:43:32.200206	2.512448E-1	3.758539E-3	3.204891E-4	1.206304E-2	2.715718E-3	1.419274E-3	1.002057E-2	1.444709E-3
10/19/2017  17:43:32.201206	7.376497E-1	1.585305E-3	2.112874E-3	1.410413E-3	4.920957E-3	1.170031E-3	4.003341E-3	8.213131E-3
10/19/2017  17:43:32.202206	1.077545E+0	3.269652E-3	1.805068E-3	1.751177E-2	8.997476E-3	8.432369E-3	1.145290E-3	2.552859E-3
10/19/2017  17:43:32.203206	8.238005E-1	2.658101E-3	3.170786E-3	8.921733E-3	6.025098E-4	2.415520E-3	1.533713E-3	6.975295E-3
10/19/2017  17:43:32.204206	1.856723E+0	2.430235E-4	4.366369E-3	5.457001E-3	6.529060E-3	1.209674E-2	8.906519E-4	1.073035E-3
10/19/2017  17:43:32.205206	8.301539E-1	9.738377E-3	6.015404E-3	2.232240E-3	1.595449E-3	3.169814E-3	5.881401E-4	8.581972E-4
10/19/2017  17:43:32.206206	2.784283E-1	1.068041E-3	6.733975E-3	6.597648E-4	3.774614E-3	2.376592E-4	2.659840E-3	1.679524E-3
10/19/2017  17:43:32.207206	7.526062E-2	1.022343E-2	8.097064E-3	1.015002E-2	3.229092E-3	8.425167E-5	3.079790E-4	1.469778E-3
10/19/2017  17:43:32.208206	3.472357E-1	3.229160E-3	7.256698E-3	4.011337E-3	6.670629E-3	2.396451E-3	4.196177E-3	1.069713E-3
10/19/2017  17:43:32.209206	6.016342E-1	2.894506E-3	9.080714E-4	5.936461E-3	7.941320E-3	7.240068E-3	1.413704E-3	3.211343E-3
10/19/2017  17:43:32.210206	2.296050E-2	7.266207E-3	5.484476E-3	4.921099E-3	1.222402E-2	1.083965E-3	3.202380E-3	3.007348E-4
10/19/2017  17:43:32.211206	7.208097E-1	8.290062E-4	2.421009E-3	3.042564E-3	9.995034E-4	1.751677E-2	4.644356E-3	1.682910E-4
10/19/2017  17:43:32.212206	1.301662E-1	1.685370E-3	2.064148E-3	2.732675E-3	7.904308E-3	1.561358E-3	8.914051E-3	2.291997E-3
10/19/2017  17:43:32.213206	8.981408E-1	8.888527E-4	4.077522E-3	2.440010E-3	4.318890E-4	6.014682E-3	3.064109E-3	2.677143E-3
10/19/2017  17:43:32.214206	1.015684E+0	1.712259E-2	3.647621E-3	9.199681E-3	8.936500E-3	3.438998E-4	1.933948E-3	2.514981E-3
10/19/2017  17:43:32.215206	3.794448E-1	2.560439E-3	1.560418E-3	7.784892E-3	3.239215E-4	9.162317E-3	8.799883E-4	4.548117E-3
10/19/2017  17:43:32.216206	5.563062E-3	2.809112E-3	8.300496E-3	1.462525E-2	1.404675E-2	7.113503E-4	7.945736E-3	7.843635E-3
10/19/2017  17:43:32.217206	1.487599E+0	7.341562E-3	7.191938E-3	1.714154E-3	4.461987E-3	8.814588E-3	2.131774E-3	6.543554E-3
10/19/2017  17:43:32.218206	3.338081E-1	4.074556E-3	8.443308E-4	8.590995E-4	1.042897E-2	4.302512E-3	7.514851E-3	1.676220E-3
10/19/2017  17:43:32.219206	3.512785E-1	5.773442E-3	6.130673E-4	4.002897E-3	5.508809E-4	6.007031E-3	5.474605E-3	8.636989E-3
								
10/19/2017  17:43:32.220206	8.092313E-1	6.984807E-6	7.436032E-3	3.648969E-3	6.581931E-3	3.464898E-4	1.174421E-2	4.307147E-3
10/19/2017  17:43:32.221206	3.634225E-1	9.605725E-3	1.266642E-2	3.063013E-3	3.891242E-3	4.465019E-3	4.168690E-3	5.861522E-3
10/19/2017  17:43:32.222206	1.018056E-1	5.797321E-3	3.784923E-3	9.198254E-3	3.336446E-3	7.908975E-3	3.572701E-3	7.202736E-5
10/19/2017  17:43:32.223206	1.621278E-1	4.732477E-3	3.795267E-3	7.247243E-4	4.753793E-4	1.902689E-3	6.341789E-3	7.192313E-3
10/19/2017  17:43:32.224206	1.621078E-1	3.266317E-3	6.235017E-3	1.789179E-3	1.959344E-3	8.811569E-4	6.148171E-4	3.131224E-3
10/19/2017  17:43:32.225206	7.396633E-1	5.333515E-3	2.948629E-3	1.559812E-3	7.743083E-3	3.239914E-3	1.597351E-2	2.212055E-3
10/19/2017  17:43:32.226206	2.215215E-1	2.339223E-3	7.156943E-3	8.030993E-3	5.262920E-3	1.822753E-3	2.938730E-3	1.140989E-2
10/19/2017  17:43:32.227206	6.981635E-1	2.284750E-4	1.046526E-2	7.388652E-3	2.143392E-3	5.627291E-3	4.894982E-3	4.360427E-3
10/19/2017  17:43:32.228206	5.912106E-1	6.970314E-3	1.122345E-2	8.661729E-3	5.293184E-4	2.510466E-3	5.362772E-4	5.973077E-3
10/19/2017  17:43:32.229206	1.107516E-2	1.068150E-3	7.033446E-3	6.780248E-3	7.488006E-3	4.849656E-3	5.142851E-3	6.794301E-3
10/19/2017  17:43:32.230206	2.461435E-2	3.191747E-3	3.346609E-3	1.041722E-2	1.489047E-2	3.029344E-3	9.748764E-3	5.827789E-3
10/19/2017  17:43:32.231206	6.986319E-1	2.612008E-3	4.303487E-3	5.394299E-3	3.887401E-3	9.681626E-3	1.177494E-3	6.784532E-3
10/19/2017  17:43:32.232206	1.179876E+0	4.942739E-3	6.056791E-3	9.138454E-6	8.030964E-3	1.145866E-3	6.118245E-3	1.001471E-3
10/19/2017  17:43:32.233206	8.798291E-1	1.448485E-2	6.596778E-3	9.483957E-3	1.204322E-2	6.114323E-3	6.499898E-3	6.261178E-3
10/19/2017  17:43:32.234206	8.223895E-1	6.705227E-3	8.385865E-4	5.699671E-3	3.089153E-3	1.826432E-2	5.407144E-3	6.271397E-4
10/19/2017  17:43:32.235206	6.375149E-1	1.289111E-2	6.273967E-4	9.308667E-3	7.192687E-3	3.463218E-3	4.967838E-3	5.210577E-4
10/19/2017  17:43:32.236206	5.743098E-1	7.797532E-3	7.469836E-3	8.207587E-4	3.516216E-3	1.014977E-2	3.336958E-4	5.106583E-3
10/19/2017  17:43:32.237206	4.696078E-1	5.204268E-3	1.453580E-3	1.705379E-3	7.871008E-3	7.730998E-3	9.503075E-3	4.459353E-4
10/19/2017  17:43:32.238206	5.438012E-2	9.140373E-3	8.368357E-3	1.086708E-2	4.427695E-3	1.711422E-3	8.614461E-3	4.734547E-4
10/19/2017  17:43:32.239206	1.791510E-1	6.437411E-4	2.150010E-3	2.553973E-4	3.244599E-3	1.082652E-3	7.497836E-3	8.874456E-3
10/19/2017  17:43:32.240206	2.945390E-1	4.461590E-4	3.024662E-3	3.126535E-4	2.665689E-3	1.105363E-3	7.588275E-3	2.061579E-3
10/19/2017  17:43:32.241206	2.411569E-1	2.606007E-3	4.338959E-3	1.984744E-3	4.909462E-3	3.567773E-3	1.546284E-3	1.955519E-3
10/19/2017  17:43:32.242206	2.476410E-1	2.917230E-4	1.195655E-3	2.501271E-2	1.884005E-3	1.126786E-2	5.954831E-3	4.897997E-4
10/19/2017  17:43:32.243206	1.140253E-1	1.927160E-3	1.195440E-3	5.018866E-3	1.643641E-3	2.632691E-3	2.887575E-3	7.233244E-3
10/19/2017  17:43:32.244206	3.986620E-1	6.116065E-3	1.187154E-3	1.404178E-2	3.768521E-3	1.409827E-2	4.942838E-3	8.239747E-3
10/19/2017  17:43:32.245206	4.280587E-1	2.052542E-4	8.205209E-3	1.215581E-2	7.872389E-3	2.351033E-3	6.632218E-3	2.534873E-3
10/19/2017  17:43:32.246206	3.511432E-1	9.517956E-3	5.566895E-6	3.374045E-3	4.926621E-4	1.160323E-2	8.410381E-3	4.668951E-3
10/19/2017  17:43:32.247206	8.637457E-2	3.606489E-3	6.183355E-5	4.119043E-3	5.243063E-3	4.118287E-3	4.669207E-3	8.036157E-3
10/19/2017  17:43:32.248206	7.005654E-2	8.472068E-3	2.463705E-3	1.300743E-3	7.227987E-3	9.995915E-4	3.256325E-3	4.669116E-3
10/19/2017  17:43:32.249206	5.536711E-2	9.517799E-3	1.853869E-2	5.885287E-3	1.077405E-3	5.365529E-3	5.799083E-4	2.924261E-3
10/19/2017  17:43:32.250206	4.435773E-1	8.275900E-3	1.025972E-2	2.024086E-3	8.120064E-3	2.721244E-3	4.033254E-3	2.393759E-3
10/19/2017  17:43:32.251206	3.795922E-1	4.588245E-3	5.901997E-4	6.686840E-4	7.139325E-3	7.214603E-3	6.165787E-3	1.157189E-2
10/19/2017  17:43:32.252206	4.359056E-1	1.379144E-3	5.094117E-3	5.988155E-4	1.147119E-3	1.569723E-3	7.724538E-3	4.213183E-3
								
10/19/2017  17:43:32.253206	2.308838E-1	3.714522E-3	1.810640E-3	9.911142E-3	1.223717E-3	3.236655E-3	4.143636E-4	1.755311E-2
10/19/2017  17:43:32.254206	3.484296E-2	1.373026E-3	1.038696E-2	5.767065E-3	6.183311E-3	2.409187E-4	4.971050E-3	8.848299E-3
10/19/2017  17:43:32.255206	5.968907E-2	5.663959E-3	4.204554E-3	2.589206E-3	6.535807E-4	3.457758E-5	5.975631E-4	5.375799E-3
10/19/2017  17:43:32.256206	3.535850E-1	1.499490E-4	3.434268E-3	9.516325E-3	5.353522E-3	1.186306E-2	5.320409E-3	4.660252E-3
10/19/2017  17:43:32.257206	3.021377E-1	9.781382E-3	8.886989E-3	1.497360E-2	1.177330E-4	7.752132E-3	2.447092E-3	6.080926E-3
10/19/2017  17:43:32.258206	1.471548E-1	5.589997E-3	7.511450E-3	1.342841E-2	1.873178E-2	5.210927E-3	5.049250E-3	1.389034E-2
10/19/2017  17:43:32.259206	3.018398E-1	2.535217E-3	5.474376E-3	4.543988E-3	7.791341E-3	2.596001E-3	6.664280E-3	2.552457E-3
10/19/2017  17:43:32.260206	2.849766E-1	9.408892E-3	1.664455E-5	3.041844E-3	2.021330E-3	6.840001E-3	1.419850E-3	7.096337E-3
10/19/2017  17:43:32.261206	1.121638E-1	3.614794E-3	6.957848E-3	2.396092E-3	5.243940E-3	1.368884E-3	1.238351E-3	1.058666E-2
10/19/2017  17:43:32.262206	1.983186E-1	5.242568E-3	3.625938E-3	7.573656E-3	9.802764E-3	5.983934E-3	8.297845E-3	2.656352E-3
10/19/2017  17:43:32.263206	4.960354E-1	5.165995E-3	5.532774E-3	1.125889E-2	1.070907E-2	8.914014E-3	1.156785E-4	2.142112E-3
10/19/2017  17:43:32.264206	3.652288E-1	1.159897E-2	2.294212E-3	6.856360E-3	1.948054E-3	1.998438E-3	4.919053E-3	6.674226E-4
10/19/2017  17:43:32.265206	3.713705E-1	4.172980E-3	6.561732E-3	8.068578E-3	8.175660E-4	6.557826E-3	2.771757E-3	1.242032E-2
10/19/2017  17:43:32.266206	5.357302E-1	8.130229E-3	1.100341E-2	5.081999E-3	1.538161E-3	6.049907E-3	2.229869E-3	1.195217E-3
10/19/2017  17:43:32.267206	1.723982E-1	1.439398E-2	2.328434E-3	4.460579E-3	1.163206E-3	2.603353E-3	7.635338E-3	1.020813E-3
10/19/2017  17:43:32.268206	3.417030E-1	1.818732E-3	3.741291E-4	8.065240E-4	1.525169E-3	6.664839E-3	1.863408E-3	3.823315E-3
10/19/2017  17:43:32.269206	8.280434E-2	3.837975E-3	2.024171E-3	5.704678E-4	9.035794E-4	6.396354E-4	5.396225E-3	1.491530E-3
10/19/2017  17:43:32.270206	3.465658E-1	8.165076E-4	1.106502E-2	2.702724E-3	1.114715E-2	1.883033E-4	2.278345E-4	1.067489E-2
10/19/2017  17:43:32.271206	7.536061E-1	8.789383E-3	7.197888E-3	7.254186E-3	2.446672E-3	4.902113E-3	7.346446E-3	2.753925E-3
10/19/2017  17:43:32.272206	5.953947E-1	6.602361E-3	3.176524E-3	8.582782E-3	2.080030E-3	4.490993E-3	1.587998E-3	7.085253E-3
10/19/2017  17:43:32.273206	7.340309E-1	5.522471E-3	4.899444E-3	7.258961E-3	4.090396E-3	4.101045E-3	3.316129E-3	3.390143E-3
10/19/2017  17:43:32.274206	1.108918E+0	9.524659E-3	7.429476E-4	1.037518E-2	3.392993E-3	3.731620E-3	4.064437E-4	2.867092E-3
10/19/2017  17:43:32.275206	3.452942E-1	1.297402E-2	7.877455E-3	1.114193E-2	1.214888E-2	1.038634E-3	2.071391E-3	2.389522E-3
10/19/2017  17:43:32.276206	6.221655E-1	9.042402E-4	2.119695E-3	7.495403E-5	1.723459E-3	1.250362E-3	4.151576E-3	5.075161E-3
10/19/2017  17:43:32.277206	6.362167E-1	3.301894E-3	2.786300E-3	4.908169E-3	8.789823E-3	3.862455E-3	3.524237E-3	5.058662E-3
10/19/2017  17:43:32.278206	1.189048E-1	7.643161E-3	4.814620E-3	1.917810E-3	5.945314E-4	1.212167E-3	5.289825E-3	4.640270E-4
10/19/2017  17:43:32.279206	6.309271E-2	2.826724E-3	1.832312E-3	1.108553E-2	6.358213E-3	8.565456E-3	7.335811E-3	2.801144E-3
10/19/2017  17:43:32.280206	7.219085E-1	2.383658E-3	6.316692E-3	2.309748E-3	8.972216E-3	3.576324E-4	3.906381E-3	2.405048E-3
10/19/2017  17:43:32.281206	3.797372E-1	9.118360E-3	6.668837E-4	9.861120E-3	7.392087E-4	4.264912E-3	1.395149E-3	7.337198E-3
10/19/2017  17:43:32.282206	8.050400E-1	6.560909E-4	5.531743E-4	1.510895E-2	7.981774E-4	3.443067E-3	3.492085E-3	8.894916E-4
10/19/2017  17:43:32.283206	9.382504E-2	1.853112E-3	4.240102E-3	6.108597E-3	5.543376E-3	1.990795E-3	2.908962E-3	1.323065E-2
10/19/2017  17:43:32.284206	4.638770E-1	7.750445E-3	1.220773E-3	2.169921E-2	1.107301E-4	4.240871E-3	3.164249E-5	1.609863E-3
10/19/2017  17:43:32.285206	5.943460E-3	2.952062E-3	1.073667E-2	2.864975E-3	2.550092E-3	9.273173E-4	9.442555E-3	8.279842E-3
								
10/19/2017  17:43:32.286206	1.753796E-1	2.634362E-3	7.385934E-3	9.608649E-3	2.242481E-3	8.763970E-3	1.268186E-2	9.545730E-3
10/19/2017  17:43:32.287206	2.178125E-2	2.102887E-6	3.116076E-3	1.202043E-3	9.002081E-3	4.767822E-4	5.813519E-3	5.900703E-3
10/19/2017  17:43:32.288206	5.944909E-1	2.230627E-3	2.609868E-3	5.669908E-3	4.167117E-3	4.218417E-3	4.324632E-3	4.499885E-3
10/19/2017  17:43:32.289206	8.626307E-1	6.022464E-4	1.621277E-2	2.337665E-3	1.059550E-2	1.119333E-3	5.839965E-3	1.092705E-2
10/19/2017  17:43:32.290206	1.518740E-1	6.656075E-4	9.967277E-3	2.071217E-3	7.571830E-3	3.869779E-3	4.668593E-3	1.623186E-4
10/19/2017  17:43:32.291206	4.594050E-2	6.308643E-3	1.589659E-3	5.214175E-3	6.453183E-3	3.369483E-3	4.168042E-3	2.547187E-3
10/19/2017  17:43:32.292206	5.195825E-1	1.364031E-2	8.426794E-4	3.976117E-4	1.102102E-2	5.585422E-4	9.856837E-4	2.484450E-3
10/19/2017  17:43:32.293206	2.280700E-1	5.421890E-5	1.800063E-3	2.813899E-3	1.255452E-4	1.691154E-2	6.548451E-4	2.029792E-3
10/19/2017  17:43:32.294206	1.600115E-1	2.392135E-3	8.716333E-3	9.238328E-3	7.235882E-3	6.925114E-3	4.326480E-3	3.076197E-3
10/19/2017  17:43:32.295206	9.436375E-1	4.929146E-3	4.275715E-3	5.832529E-4	5.611872E-3	8.329291E-3	3.205996E-3	2.692019E-3
10/19/2017  17:43:32.296206	1.578184E+0	1.470276E-2	3.521502E-3	2.603832E-3	2.346987E-3	4.636595E-3	7.209045E-3	4.691012E-3
10/19/2017  17:43:32.297206	1.665454E+0	3.062982E-3	8.890224E-3	1.931036E-3	6.723020E-3	8.545035E-3	8.232976E-3	8.266284E-4
10/19/2017  17:43:32.298206	9.757573E-1	9.196763E-3	2.903432E-3	1.324765E-3	1.394067E-3	4.658805E-3	1.655872E-2	8.203170E-4
10/19/2017  17:43:32.299206	2.841516E+0	3.948020E-3	1.159092E-2	1.563516E-2	5.919444E-3	1.755948E-3	4.689353E-3	1.530200E-3
10/19/2017  17:43:32.300206	4.352710E-1	3.338509E-3	4.391408E-3	8.733934E-3	2.918976E-4	3.062666E-3	1.580578E-3	1.189868E-3
10/19/2017  17:43:32.301206	2.227931E+0	4.250260E-3	1.321457E-2	1.599107E-2	6.836036E-3	4.759471E-3	8.104846E-3	1.148970E-3
10/19/2017  17:43:32.302206	1.565457E+0	3.606874E-3	4.125067E-3	6.281793E-3	1.052922E-3	1.027716E-2	2.166519E-3	1.516892E-2
10/19/2017  17:43:32.303206	4.063055E-1	5.356920E-3	3.644671E-3	3.018778E-2	3.871825E-3	5.137437E-4	7.589028E-3	8.269710E-3
10/19/2017  17:43:32.304206	1.610397E+0	2.603139E-3	6.213725E-3	9.167688E-3	3.738431E-3	2.624509E-3	2.963507E-3	2.276833E-3
10/19/2017  17:43:32.305206	1.150021E+0	2.301599E-3	4.277574E-4	1.582736E-2	7.502545E-4	5.001156E-3	4.851799E-3	5.185244E-3
10/19/2017  17:43:32.306206	4.061441E-1	4.365273E-3	1.152990E-2	5.366309E-3	8.846666E-3	4.389365E-3	5.322810E-3	2.597900E-4
10/19/2017  17:43:32.307206	9.267784E-1	1.378459E-3	4.380209E-4	1.725182E-4	4.257372E-3	3.207378E-3	6.867429E-3	9.560823E-3
10/19/2017  17:43:32.308206	5.208345E-1	1.991842E-2	5.090201E-3	4.876200E-3	3.577768E-3	6.797425E-3	5.961074E-3	6.105310E-3
10/19/2017  17:43:32.309206	5.461915E-1	6.787311E-3	1.941554E-3	5.693991E-4	4.094116E-3	1.195382E-3	1.967494E-3	5.830617E-4
10/19/2017  17:43:32.310206	2.807652E-1	8.285411E-3	3.100380E-3	7.525088E-3	5.859242E-3	1.498862E-2	1.645386E-3	1.761525E-3
10/19/2017  17:43:32.311206	4.462601E-1	9.460293E-3	2.652199E-3	5.433688E-3	6.808454E-3	7.192152E-4	1.352440E-3	9.632823E-4
10/19/2017  17:43:32.312206	6.781143E-1	1.375496E-3	1.062256E-4	2.392514E-3	3.668607E-3	1.141263E-2	3.429461E-3	3.760679E-3
10/19/2017  17:43:32.313206	2.254717E-1	3.524295E-3	2.242181E-3	1.368816E-2	7.709234E-4	4.200952E-3	2.805398E-3	1.005891E-2
10/19/2017  17:43:32.314206	4.279785E-1	2.960193E-3	6.549589E-3	2.705251E-3	8.743384E-3	1.035775E-2	7.132173E-3	1.051017E-2
10/19/2017  17:43:32.315206	1.079506E-1	6.930820E-3	1.604319E-3	1.425180E-2	6.784603E-3	5.651841E-3	3.765994E-3	2.756641E-4
10/19/2017  17:43:32.316206	3.097634E-1	3.507610E-3	3.820649E-3	4.304097E-4	1.089177E-3	4.350336E-4	3.204091E-3	7.072758E-3
10/19/2017  17:43:32.317206	7.693485E-1	6.049664E-4	6.064132E-3	6.607061E-3	2.019807E-2	3.047654E-3	2.684151E-3	1.318577E-3
10/19/2017  17:43:32.318206	1.845166E-1	7.506345E-3	2.041057E-3	8.617911E-3	4.277962E-3	7.583850E-3	2.204398E-3	1.077889E-2
								
10/19/2017  17:43:32.319206	8.920412E-1	3.137670E-3	4.211243E-3	2.014721E-3	8.564053E-3	5.054589E-3	7.606702E-3	4.751910E-3
10/19/2017  17:43:32.320206	1.452000E+0	5.105907E-3	3.372599E-3	7.194132E-4	4.339022E-3	6.332284E-3	2.896787E-3	8.831707E-4
10/19/2017  17:43:32.321206	2.324436E-1	7.344542E-3	2.727207E-3	5.381713E-3	3.565279E-3	9.080069E-3	2.399718E-3	9.761124E-4
10/19/2017  17:43:32.322206	1.000282E+0	3.275069E-3	1.427335E-2	9.275310E-3	3.189645E-3	3.311049E-3	2.742575E-3	1.051427E-3
10/19/2017  17:43:32.323206	9.359619E-1	5.220468E-3	4.298379E-3	1.607344E-3	7.535508E-3	3.071077E-3	2.291955E-3	5.919784E-3
10/19/2017  17:43:32.324206	6.902725E-1	2.213607E-4	3.591406E-3	1.731813E-2	5.309755E-3	6.536675E-3	8.872171E-3	2.308298E-3
10/19/2017  17:43:32.325206	6.749414E-1	7.178908E-3	4.089941E-3	2.023093E-3	3.014933E-4	4.148373E-3	2.815625E-4	2.242372E-3
10/19/2017  17:43:32.326206	4.731804E-1	1.069240E-3	1.181893E-3	6.696089E-3	7.412301E-3	6.143143E-3	2.338981E-3	2.518484E-3
10/19/2017  17:43:32.327206	4.432032E-1	5.716458E-3	1.042385E-2	3.552264E-3	7.376443E-4	1.607493E-3	1.393154E-4	5.199817E-3
10/19/2017  17:43:32.328206	2.230242E-1	2.561728E-3	6.219871E-4	3.192450E-3	1.751465E-3	1.293215E-2	4.571412E-3	9.350499E-3
10/19/2017  17:43:32.329206	9.924378E-1	1.467256E-4	4.075034E-3	9.888027E-3	8.539249E-3	6.363664E-3	8.134923E-3	1.298916E-3
10/19/2017  17:43:32.330206	1.008230E+0	2.243031E-3	1.374493E-3	1.075741E-2	9.567286E-5	6.323275E-3	2.431205E-3	3.286667E-3
10/19/2017  17:43:32.331206	2.268572E-1	4.447289E-4	5.988931E-3	5.060109E-3	1.412355E-2	1.733296E-3	2.429388E-3	1.147507E-2
10/19/2017  17:43:32.332206	2.779477E-1	1.964996E-3	6.576603E-3	6.700222E-3	4.520060E-3	8.545401E-3	5.133926E-4	7.456395E-3
10/19/2017  17:43:32.333206	7.993667E-1	3.983112E-3	7.398794E-4	3.713755E-3	3.841970E-3	7.183236E-3	5.357070E-3	7.767594E-3
10/19/2017  17:43:32.334206	8.714720E-1	3.298643E-3	8.919174E-3	8.605178E-3	3.830025E-3	1.103318E-3	3.975165E-5	2.839914E-3
10/19/2017  17:43:32.335206	3.452956E-1	2.016262E-3	1.746303E-3	6.844352E-3	1.450033E-3	1.239309E-3	2.195551E-4	4.772385E-3
10/19/2017  17:43:32.336206	1.727303E-1	1.821621E-3	3.737521E-3	8.142191E-3	1.060884E-2	1.488829E-3	5.061779E-3	7.713025E-3
10/19/2017  17:43:32.337206	3.921223E-1	3.046726E-3	8.692050E-3	2.101255E-3	2.896859E-3	3.799318E-3	4.428877E-3	5.303763E-4
10/19/2017  17:43:32.338206	5.972151E-1	2.239940E-3	2.723248E-3	7.143723E-4	1.432885E-2	1.038598E-3	5.529797E-3	7.515805E-3
10/19/2017  17:43:32.339206	7.757452E-1	9.048484E-3	3.024498E-5	7.587723E-4	1.984214E-3	1.038211E-3	1.466747E-4	1.627468E-3
10/19/2017  17:43:32.340206	2.331767E-1	5.344017E-3	4.667181E-3	5.486460E-3	1.110524E-2	1.036371E-3	2.624409E-3	5.975675E-3
10/19/2017  17:43:32.341206	4.886908E-1	2.552918E-3	1.093820E-2	7.092122E-3	4.785381E-3	5.719891E-3	1.381271E-5	2.064963E-4
10/19/2017  17:43:32.342206	6.582206E-1	2.493083E-3	4.983861E-3	1.334557E-3	5.765856E-4	4.428321E-3	9.514300E-3	1.404224E-2
10/19/2017  17:43:32.343206	7.781214E-1	2.630635E-3	9.062705E-3	2.936369E-2	5.115569E-3	1.085228E-3	1.043120E-2	9.560550E-3
10/19/2017  17:43:32.344206	9.055155E-1	8.295105E-5	3.996532E-3	1.246684E-3	7.544591E-3	1.073818E-3	7.665261E-3	3.712593E-3
10/19/2017  17:43:32.345206	1.590750E-1	2.384017E-3	9.581497E-4	1.315298E-2	5.928222E-4	5.969531E-3	1.850151E-3	3.622987E-3
10/19/2017  17:43:32.346206	7.181204E-1	7.410871E-3	1.636357E-3	3.449162E-4	5.138548E-3	2.200392E-3	7.788530E-3	1.130447E-2
10/19/2017  17:43:32.347206	1.018486E+0	1.570191E-3	3.211843E-3	7.093048E-3	5.166464E-3	4.431945E-3	7.559378E-3	5.098427E-3
10/19/2017  17:43:32.348206	4.645230E-1	1.512498E-2	9.130895E-3	1.307955E-2	9.153685E-3	3.091868E-3	6.440158E-3	2.564380E-3
10/19/2017  17:43:32.349206	2.645085E-1	1.360344E-3	5.426651E-3	1.903921E-3	6.367496E-3	4.739627E-3	8.642479E-3	1.995106E-3
10/19/2017  17:43:32.350206	2.053305E-2	1.065776E-3	4.559307E-3	9.940587E-3	1.681365E-3	7.995648E-3	2.093510E-3	3.210688E-3
10/19/2017  17:43:32.351206	6.814668E-2	1.580676E-3	3.271321E-3	5.939532E-3	6.142719E-3	2.311989E-3	4.154887E-3	6.461049E-3
								
10/19/2017  17:43:32.352206	1.059089E-1	5.561313E-3	4.187231E-3	5.281089E-3	1.893671E-3	1.190303E-2	3.514435E-3	5.151945E-4
10/19/2017  17:43:32.353206	8.305459E-1	9.543789E-3	3.425307E-3	4.715848E-3	7.039054E-4	4.317496E-3	7.633332E-3	4.551244E-3
10/19/2017  17:43:32.354206	1.330273E+0	8.188323E-3	6.649684E-3	3.751186E-3	7.595133E-3	8.670153E-3	7.712301E-3	5.252720E-3
10/19/2017  17:43:32.355206	3.163115E-1	1.180989E-2	5.744796E-3	1.588652E-2	3.098889E-3	4.135775E-3	4.374888E-4	5.678733E-4
10/19/2017  17:43:32.356206	1.155118E+0	4.174971E-3	9.158608E-3	4.727216E-4	7.443108E-3	1.464526E-3	5.000716E-3	5.515851E-3
10/19/2017  17:43:32.357206	6.241560E-1	3.630898E-3	1.758867E-3	9.655355E-3	1.010044E-2	8.554280E-3	4.119611E-3	2.056558E-3
10/19/2017  17:43:32.358206	3.132211E-1	7.821249E-4	8.663218E-3	8.475772E-3	3.717176E-3	2.756328E-3	1.074308E-2	3.756198E-3
10/19/2017  17:43:32.359206	2.370606E-1	1.644924E-3	2.695132E-3	9.690746E-3	4.102749E-3	1.518929E-4	4.489189E-3	6.580815E-3
10/19/2017  17:43:32.360206	1.238243E-1	1.340402E-3	2.402287E-3	1.060212E-2	1.048975E-3	4.975782E-3	3.212876E-3	1.059890E-2
10/19/2017  17:43:32.361206	4.525907E-1	3.407514E-3	2.008503E-3	2.832903E-3	7.020140E-4	1.980894E-3	6.691199E-3	1.388692E-2
10/19/2017  17:43:32.362206	4.056395E-1	2.773334E-3	3.041307E-3	9.515590E-3	3.906023E-4	7.613536E-3	3.301626E-3	4.583103E-3
10/19/2017  17:43:32.363206	9.874525E-2	4.833693E-3	6.777567E-3	1.001207E-3	9.283035E-3	7.473072E-4	8.986758E-3	8.482000E-3
10/19/2017  17:43:32.364206	4.859416E-1	8.889242E-3	9.553695E-4	1.018174E-2	9.399972E-4	1.018170E-2	5.247393E-3	9.409367E-3
10/19/2017  17:43:32.365206	5.847746E-1	6.526504E-3	1.657209E-3	5.608448E-3	3.798974E-3	3.027888E-3	5.022915E-3	3.642665E-3
10/19/2017  17:43:32.366206	5.133062E-1	5.467525E-3	1.513664E-3	9.559947E-3	1.626931E-3	4.825407E-3	9.744182E-3	4.076202E-3
10/19/2017  17:43:32.367206	1.985496E-1	6.841584E-3	1.309972E-2	1.278447E-3	3.866905E-3	7.420467E-4	1.277103E-3	5.890410E-3
10/19/2017  17:43:32.368206	5.576050E-1	6.143811E-3	4.011281E-3	3.427955E-3	1.323853E-3	7.738854E-4	1.999233E-2	2.668575E-3
10/19/2017  17:43:32.369206	3.971909E-1	3.033217E-3	1.265563E-2	8.859134E-3	8.384228E-3	3.892403E-3	4.909672E-4	6.927617E-3
10/19/2017  17:43:32.370206	4.356768E-2	3.601631E-4	3.623021E-3	2.754345E-3	4.773728E-3	3.917731E-3	2.011675E-3	5.761675E-3
10/19/2017  17:43:32.371206	8.336755E-2	4.339593E-4	3.695840E-3	1.231503E-4	3.050651E-3	1.050053E-2	2.914177E-3	2.732389E-6
10/19/2017  17:43:32.372206	2.715862E-1	2.837496E-3	4.221316E-3	6.808224E-3	2.605104E-4	7.478744E-3	2.726576E-5	9.584143E-3
10/19/2017  17:43:32.373206	1.136222E-1	7.187124E-3	3.867767E-3	6.167920E-3	4.456025E-3	5.477933E-3	8.451708E-5	8.237280E-3
10/19/2017  17:43:32.374206	1.906043E-1	1.030208E-2	3.532048E-3	7.733491E-3	8.044284E-3	2.342951E-3	2.525043E-3	4.654339E-3
10/19/2017  17:43:32.375206	1.802145E-1	5.448355E-3	8.691046E-4	1.447802E-2	2.112612E-3	5.036418E-3	1.167201E-4	7.852225E-4
10/19/2017  17:43:32.376206	3.117525E-1	4.687233E-3	5.641640E-3	2.042722E-3	1.234206E-2	1.864343E-3	9.358234E-3	1.007709E-2
10/19/2017  17:43:32.377206	2.461647E-1	1.638086E-3	2.505351E-4	1.979348E-3	1.387886E-3	1.022376E-2	3.799846E-3	1.428571E-3
10/19/2017  17:43:32.378206	3.473828E-1	5.659985E-3	5.056917E-3	4.306181E-4	5.762992E-3	5.426909E-3	1.477689E-3	5.935824E-3
10/19/2017  17:43:32.379206	3.803147E-1	9.304724E-3	9.076935E-3	9.269243E-3	2.354770E-3	2.240549E-3	8.279267E-3	4.285765E-3
10/19/2017  17:43:32.380206	4.600522E-1	5.480480E-3	6.381029E-3	1.270563E-2	4.119872E-3	4.885115E-4	4.795449E-3	5.847416E-3
10/19/2017  17:43:32.381206	6.344619E-1	7.214368E-3	3.007380E-3	1.501924E-2	3.842976E-3	4.525755E-4	1.780699E-3	5.005950E-3
10/19/2017  17:43:32.382206	3.973057E-1	5.528020E-3	1.396224E-2	6.205745E-3	3.527400E-3	4.138847E-4	7.823929E-3	1.889374E-3
10/19/2017  17:43:32.383206	3.425928E-2	4.547584E-3	2.292184E-3	1.711190E-2	4.370216E-3	6.657375E-3	4.159592E-3	3.121018E-3
10/19/2017  17:43:32.384206	9.712450E-3	1.275512E-2	1.993866E-3	1.987308E-3	6.333990E-3	8.589526E-4	1.352609E-3	6.727941E-3
								
10/19/2017  17:43:32.385206	1.206234E-1	8.319841E-4	1.719589E-3	5.891556E-4	8.509445E-3	7.644202E-3	8.031766E-3	3.744898E-3
10/19/2017  17:43:32.386206	9.896380E-1	1.000231E-2	8.501816E-3	4.200990E-4	2.195290E-3	7.573743E-4	5.198860E-3	8.686724E-4
10/19/2017  17:43:32.387206	1.247838E-1	8.125752E-3	2.261078E-3	4.422183E-3	7.903659E-3	8.525214E-4	2.288700E-5	6.270492E-3
10/19/2017  17:43:32.388206	6.073228E-1	1.605772E-5	1.605726E-2	1.442638E-3	5.312668E-5	5.614844E-3	2.099309E-3	6.497144E-3
10/19/2017  17:43:32.389206	9.131665E-1	1.160387E-2	7.607254E-3	8.138842E-3	7.301791E-3	9.589572E-3	1.725953E-2	3.190720E-3
10/19/2017  17:43:32.390206	2.442536E-1	9.181547E-3	8.842784E-3	9.631565E-3	2.980013E-3	1.218657E-3	6.861840E-4	3.430079E-4
10/19/2017  17:43:32.391206	7.920158E-2	3.283953E-3	1.940400E-3	8.239774E-3	8.635890E-5	8.368897E-3	6.720177E-4	7.292320E-3
10/19/2017  17:43:32.392206	2.370506E-1	1.752768E-3	3.000078E-3	2.496740E-3	1.209339E-2	2.333725E-3	7.681693E-3	6.062508E-3
10/19/2017  17:43:32.393206	5.962223E-1	1.743644E-2	4.568999E-3	2.198900E-3	5.696013E-3	1.860937E-3	1.822283E-3	2.096655E-3
10/19/2017  17:43:32.394206	2.893671E-1	1.643174E-3	1.557494E-3	8.956603E-3	1.982547E-4	1.425591E-3	8.326764E-4	3.678690E-4
10/19/2017  17:43:32.395206	1.104982E+0	1.547063E-2	5.707519E-3	1.692362E-2	4.926127E-3	1.026137E-3	3.948999E-3	2.243488E-3
10/19/2017  17:43:32.396206	9.239152E-2	8.141987E-3	4.610731E-3	1.268900E-5	1.828063E-3	1.682403E-3	9.259029E-4	2.099111E-3
10/19/2017  17:43:32.397206	1.515649E+0	3.600587E-5	3.931205E-3	4.970861E-3	1.521349E-3	7.135248E-4	8.684024E-3	4.303834E-3
10/19/2017  17:43:32.398206	3.466947E-1	4.627761E-3	1.076383E-2	2.115459E-3	8.283758E-3	7.411062E-3	2.005280E-3	5.587510E-3
10/19/2017  17:43:32.399206	7.504537E-1	5.598696E-3	6.687810E-3	3.224800E-4	7.229744E-3	1.044861E-2	6.364195E-3	9.531179E-3
10/19/2017  17:43:32.400206	8.536273E-1	1.521893E-4	7.962990E-4	4.721386E-3	3.870370E-3	2.884022E-4	8.760042E-3	5.871032E-3
10/19/2017  17:43:32.401206	1.430267E-1	4.467805E-3	5.157931E-3	1.037899E-2	1.371403E-3	8.885707E-6	4.066579E-4	9.487355E-3
10/19/2017  17:43:32.402206	7.331060E-1	1.297762E-3	2.937342E-3	2.072963E-2	3.598773E-3	9.615676E-3	4.343166E-3	8.663935E-3
10/19/2017  17:43:32.403206	9.589094E-1	3.271582E-3	5.091290E-3	3.575622E-3	7.776334E-3	3.613352E-3	8.079789E-3	2.880286E-3
10/19/2017  17:43:32.404206	5.796102E-1	2.554299E-3	6.863847E-3	7.742161E-3	5.216454E-3	1.323499E-2	4.902247E-3	2.889562E-4
10/19/2017  17:43:32.405206	1.194426E+0	2.782837E-3	3.435550E-3	5.447991E-4	6.780149E-3	3.107646E-3	4.144693E-3	9.811423E-3
10/19/2017  17:43:32.406206	1.213904E+0	4.944026E-3	1.131687E-2	4.153654E-3	8.424312E-3	9.919726E-3	1.104771E-3	8.401423E-3
10/19/2017  17:43:32.407206	3.338308E-1	3.053924E-4	6.783562E-3	3.640587E-3	2.434104E-3	1.019130E-2	1.493323E-3	4.616688E-3
10/19/2017  17:43:32.408206	6.364419E-1	2.280710E-3	3.301994E-3	8.320591E-4	7.376048E-3	3.344797E-3	1.071157E-2	1.547148E-3
10/19/2017  17:43:32.409206	2.069217E+0	2.109800E-3	9.681958E-3	3.131309E-3	5.534152E-3	1.011470E-2	3.376714E-4	1.266388E-3
10/19/2017  17:43:32.410206	9.535287E-1	4.286908E-3	3.788075E-3	9.735029E-3	2.367910E-3	3.005531E-3	3.414097E-4	8.041514E-3
10/19/2017  17:43:32.411206	1.146859E+0	3.740874E-3	1.112502E-3	1.201494E-3	5.052142E-3	1.636972E-2	3.419954E-4	6.656674E-3
10/19/2017  17:43:32.412206	3.357863E-1	1.729165E-2	8.214089E-3	1.091416E-3	8.938349E-3	1.985555E-4	6.687622E-3	1.639629E-3
10/19/2017  17:43:32.413206	2.759484E-1	6.580033E-3	2.420091E-3	1.073668E-2	4.320210E-3	7.227366E-3	8.538711E-4	3.047809E-3
10/19/2017  17:43:32.414206	1.326824E+0	1.072915E-2	4.508864E-3	2.819983E-3	1.427528E-3	9.584021E-4	5.721168E-4	1.177015E-2
10/19/2017  17:43:32.415206	1.331853E+0	2.846799E-3	6.224842E-3	4.918301E-3	1.042471E-3	1.479777E-3	2.662041E-3	3.115438E-3
10/19/2017  17:43:32.416206	3.077668E-1	1.200143E-2	5.661483E-4	2.734562E-3	6.272568E-3	5.872209E-3	4.974857E-3	4.232321E-4
10/19/2017  17:43:32.417206	2.257461E+0	3.803384E-3	1.128223E-2	2.539675E-3	1.005361E-2	2.492371E-3	2.030474E-3	2.822958E-3
								
10/19/2017  17:43:32.418206	1.305165E+0	7.571653E-4	1.162504E-2	4.363623E-5	1.388161E-3	4.128858E-4	5.173208E-3	4.547629E-3
10/19/2017  17:43:32.419206	1.670534E-1	6.532373E-3	4.252924E-3	9.262953E-3	3.641085E-3	5.365937E-4	2.839007E-3	1.369720E-3
10/19/2017  17:43:32.420206	7.606014E-1	3.759306E-3	3.611432E-3	6.491961E-3	1.524982E-3	6.417197E-4	9.609319E-3	1.072146E-2
10/19/2017  17:43:32.421206	5.283465E-1	3.963999E-3	4.008285E-3	1.744695E-2	3.512916E-3	3.957384E-3	1.159103E-3	2.584382E-3
10/19/2017  17:43:32.422206	1.551910E-1	8.131659E-3	1.302048E-3	1.611420E-3	6.342969E-3	5.459713E-3	6.115460E-3	6.814175E-3
10/19/2017  17:43:32.423206	4.607408E-1	4.832996E-3	5.926486E-3	1.346738E-3	4.171576E-3	1.209149E-2	2.841654E-3	1.077317E-2
10/19/2017  17:43:32.424206	1.884819E-1	4.055420E-3	2.579140E-4	5.931419E-3	3.654477E-3	3.408704E-3	2.367126E-3	2.129506E-3
10/19/2017  17:43:32.425206	3.645454E-1	1.346361E-3	2.470378E-3	1.906908E-2	1.521459E-3	6.340731E-3	4.272145E-3	5.485820E-4
10/19/2017  17:43:32.426206	4.579654E-1	5.919228E-3	2.725591E-3	1.829938E-3	5.855711E-3	8.904686E-3	1.199288E-3	4.211487E-3
10/19/2017  17:43:32.427206	4.784493E-1	1.986725E-3	2.268366E-3	3.454615E-3	4.395234E-3	6.439657E-4	1.286319E-2	8.211001E-3
10/19/2017  17:43:32.428206	8.995671E-2	6.324624E-3	4.124056E-3	5.564819E-3	1.303500E-2	5.344999E-3	3.161502E-3	9.228638E-5
10/19/2017  17:43:32.429206	1.294762E-1	5.484008E-4	9.469652E-4	6.773234E-3	5.643448E-3	6.923848E-3	5.006008E-3	2.447835E-3
10/19/2017  17:43:32.430206	1.310466E-1	2.024080E-3	5.259797E-3	3.960603E-3	7.341300E-3	1.143030E-3	7.550066E-3	4.960516E-3
10/19/2017  17:43:32.431206	1.304115E-2	5.184170E-3	7.573207E-3	1.307087E-3	1.009248E-2	1.439872E-3	2.967578E-3	2.872450E-3
10/19/2017  17:43:32.432206	1.577979E-1	1.854718E-3	3.729348E-4	9.486391E-4	3.435908E-3	2.215724E-2	4.825766E-3	4.794648E-3
10/19/2017  17:43:32.433206	4.298421E-1	1.740744E-2	4.753330E-3	1.357780E-2	3.139552E-3	9.663911E-3	7.716935E-3	5.355213E-3
10/19/2017  17:43:32.434206	2.386080E-1	1.607329E-3	8.015687E-3	5.293941E-5	4.188068E-3	1.547244E-2	5.156199E-3	9.528009E-3
10/19/2017  17:43:32.435206	1.130397E-1	8.055563E-3	4.680067E-3	6.923480E-3	1.400970E-3	7.901840E-3	7.412172E-3	3.744191E-3
10/19/2017  17:43:32.436206	1.590845E-1	6.781348E-3	1.030608E-3	8.446388E-3	9.094116E-4	2.835263E-3	1.590673E-3	5.594082E-3
10/19/2017  17:43:32.437206	4.678886E-1	1.418985E-3	8.223167E-3	1.435467E-2	9.894112E-3	2.041040E-4	1.026387E-3	7.099429E-3
10/19/2017  17:43:32.438206	5.696418E-1	1.006818E-3	1.693265E-4	4.280232E-4	3.760054E-3	2.665402E-3	5.576842E-3	1.083522E-3
10/19/2017  17:43:32.439206	6.298444E-1	7.027319E-4	3.769528E-4	3.265492E-4	3.474932E-3	4.729845E-3	4.682002E-3	8.389600E-3
10/19/2017  17:43:32.440206	9.188398E-1	1.914731E-3	7.592321E-3	7.266968E-3	1.581103E-4	6.004600E-4	3.859396E-3	9.455926E-3
10/19/2017  17:43:32.441206	4.030721E-1	8.805827E-3	4.388719E-4	1.039356E-2	5.025906E-3	5.110108E-3	1.094908E-2	5.980384E-3
10/19/2017  17:43:32.442206	7.230984E-1	4.198487E-3	1.193160E-2	6.495461E-3	1.172880E-2	2.851770E-3	6.987524E-3	4.943105E-3
10/19/2017  17:43:32.443206	2.821523E-1	3.461787E-3	1.364264E-2	6.271972E-3	1.507944E-3	2.550800E-3	5.830175E-3	1.709351E-2
10/19/2017  17:43:32.444206	2.192267E-1	8.928161E-3	1.505659E-5	1.815204E-2	1.382165E-3	4.614440E-3	4.921831E-3	7.460744E-3
10/19/2017  17:43:32.445206	7.959138E-2	2.931287E-3	4.509897E-3	1.059935E-2	1.087425E-2	1.626604E-3	5.283335E-3	7.842523E-3
10/19/2017  17:43:32.446206	2.499796E-1	1.496870E-4	8.125143E-3	1.141667E-2	4.689268E-3	5.612325E-3	7.201318E-3	2.696567E-3
10/19/2017  17:43:32.447206	2.870272E-1	2.473377E-3	7.028537E-3	4.450764E-3	9.586222E-4	3.681687E-5	1.037864E-3	9.257546E-3
10/19/2017  17:43:32.448206	3.937309E-1	2.069560E-3	1.021915E-3	8.969158E-4	5.745006E-3	2.493120E-3	1.270724E-2	1.702710E-3
10/19/2017  17:43:32.449206	5.928375E-2	4.041527E-3	1.018579E-2	1.615975E-3	3.431134E-4	7.164809E-3	3.313555E-3	3.963183E-3
10/19/2017  17:43:32.450206	1.560545E-1	1.034636E-2	9.237961E-4	9.583528E-4	1.219949E-2	3.546322E-3	2.813109E-3	8.218276E-3
								
10/19/2017  17:43:32.451206	6.382013E-3	1.256132E-2	3.722679E-3	1.016277E-2	1.382695E-3	2.067016E-2	2.332336E-3	2.649124E-3
10/19/2017  17:43:32.452206	1.455629E-1	1.544938E-2	6.454378E-3	3.267149E-3	1.151473E-3	1.129700E-3	9.726509E-3	2.477691E-3
10/19/2017  17:43:32.453206	2.258001E-1	5.724423E-3	9.479773E-4	9.941672E-3	1.403101E-3	1.031187E-2	1.247112E-3	2.313604E-3
10/19/2017  17:43:32.454206	2.338667E-1	2.532922E-3	5.645189E-3	3.274070E-3	1.149686E-3	7.762750E-4	1.179494E-3	2.156609E-3
10/19/2017  17:43:32.455206	1.406738E-1	2.550174E-3	7.217514E-3	3.725718E-4	5.655987E-3	8.087893E-4	1.059946E-2	3.369183E-4
10/19/2017  17:43:32.456206	9.274794E-3	4.488588E-3	6.114705E-3	1.617045E-2	1.172727E-2	7.863406E-3	7.654819E-3	2.439101E-3
10/19/2017  17:43:32.457206	1.831700E-1	1.389024E-3	4.068454E-4	7.515703E-3	5.186109E-3	7.334786E-3	1.976764E-3	9.878242E-3
10/19/2017  17:43:32.458206	1.111103E-1	1.262234E-3	2.582893E-3	4.071461E-3	1.923136E-2	3.298569E-3	2.859341E-3	7.904642E-3
10/19/2017  17:43:32.459206	1.292062E-1	5.843579E-3	9.680474E-3	5.787375E-3	9.608701E-3	9.942728E-3	4.791723E-3	2.889101E-3
10/19/2017  17:43:32.460206	5.560336E-1	6.742772E-3	1.218316E-3	9.512428E-3	1.072172E-3	7.975609E-3	1.861277E-3	2.648491E-3
10/19/2017  17:43:32.461206	5.093144E-1	1.409550E-3	3.627367E-3	8.560724E-3	3.843718E-3	6.675885E-3	5.328757E-3	7.625352E-5
10/19/2017  17:43:32.462206	2.881705E-1	5.970341E-3	6.539922E-4	1.997339E-3	3.770148E-3	1.545974E-3	3.543139E-4	4.930310E-3
10/19/2017  17:43:32.463206	1.954966E-1	2.738071E-3	4.229706E-3	2.030471E-2	3.129881E-3	1.480492E-3	2.837216E-3	6.650740E-3
10/19/2017  17:43:32.464206	2.994796E-1	4.647091E-3	8.083656E-3	1.950744E-3	6.857770E-3	3.273741E-3	2.304501E-4	1.071637E-2
10/19/2017  17:43:32.465206	1.075908E-1	3.862866E-3	5.022365E-3	1.145121E-2	3.535040E-3	1.148760E-2	4.321164E-3	2.804396E-3
10/19/2017  17:43:32.466206	8.958168E-2	1.542943E-3	6.712500E-3	6.258760E-4	5.572120E-4	4.412063E-4	5.931929E-3	1.190566E-2
10/19/2017  17:43:32.467206	1.342586E-1	3.255793E-3	3.653244E-3	1.020749E-2	6.683987E-3	4.375339E-4	7.537813E-3	7.355788E-4
10/19/2017  17:43:32.468206	7.936509E-2	4.936787E-3	1.339208E-2	5.398050E-4	3.357671E-3	1.913195E-3	1.782122E-3	1.723690E-3
10/19/2017  17:43:32.469206	2.028700E-1	7.767893E-3	2.787018E-3	2.609226E-3	4.199386E-3	3.882407E-3	1.560678E-3	5.582784E-3
10/19/2017  17:43:32.470206	3.450146E-1	2.058040E-3	7.103297E-3	2.711822E-3	1.190411E-3	6.215601E-3	3.332764E-3	7.036624E-3
10/19/2017  17:43:32.471206	1.404427E-1	2.806197E-3	1.296669E-3	1.668616E-4	1.291098E-3	6.492899E-4	4.171562E-4	1.086995E-3
10/19/2017  17:43:32.472206	1.116963E+0	7.167805E-3	1.307433E-3	4.331526E-3	1.323872E-3	2.949091E-3	2.801008E-4	9.357476E-4
10/19/2017  17:43:32.473206	4.512646E-1	8.517935E-3	5.871916E-3	3.394590E-3	1.184331E-3	4.863727E-3	2.502345E-3	1.549235E-3
10/19/2017  17:43:32.474206	3.562622E-1	1.855014E-4	2.505785E-3	1.998275E-4	1.291429E-3	7.635320E-3	3.291724E-4	8.326931E-3
10/19/2017  17:43:32.475206	4.656705E-1	1.654416E-2	3.913786E-4	7.217634E-3	6.026038E-3	5.991467E-4	2.729636E-3	1.180386E-2
10/19/2017  17:43:32.476206	7.141422E-1	2.593342E-3	2.855466E-3	2.982613E-3	4.209345E-4	9.922778E-3	2.293784E-3	1.724407E-3
10/19/2017  17:43:32.477206	5.296757E-1	7.094949E-3	2.315723E-4	2.480874E-3	1.373293E-2	5.990892E-3	2.842617E-3	1.468365E-3
10/19/2017  17:43:32.478206	1.003597E+0	3.805219E-3	9.734115E-3	2.406692E-3	2.622102E-3	2.114737E-3	1.390279E-4	1.234805E-3
10/19/2017  17:43:32.479206	3.833537E-1	9.718477E-4	1.270902E-3	2.323511E-3	2.385023E-3	1.945426E-3	9.184573E-3	1.022501E-3
10/19/2017  17:43:32.480206	1.964788E+0	7.932879E-3	1.110398E-3	2.232429E-3	1.850293E-4	7.587979E-3	4.102299E-3	7.860410E-3
10/19/2017  17:43:32.481206	2.102552E-1	2.026102E-3	3.307400E-3	2.134495E-3	7.052198E-3	3.174383E-3	8.302463E-3	1.846152E-3
10/19/2017  17:43:32.482206	1.682747E+0	7.699356E-3	6.591131E-3	5.004906E-3	3.662458E-3	2.905314E-3	4.633651E-3	3.285174E-3
10/19/2017  17:43:32.483206	1.233634E+0	5.471864E-4	1.505425E-3	1.245791E-2	9.771213E-4	6.722770E-3	3.185470E-3	1.348729E-2
								
10/19/2017  17:43:32.484206	2.732692E-1	2.853854E-3	1.327089E-3	1.539979E-2	1.047007E-3	6.293323E-3	7.437731E-3	5.263051E-3
10/19/2017  17:43:32.485206	3.697211E-2	9.282676E-3	3.506736E-3	1.060772E-3	5.802544E-3	5.554651E-3	1.579845E-3	2.371662E-3
10/19/2017  17:43:32.486206	1.421868E-2	1.627428E-3	6.250563E-4	3.297680E-3	3.795322E-4	1.804778E-4	1.074893E-3	4.789829E-3
10/19/2017  17:43:32.487206	2.955119E-1	3.188980E-3	4.172303E-3	4.718208E-4	8.916974E-3	4.998719E-3	8.390847E-3	3.262195E-3
10/19/2017  17:43:32.488206	2.125850E-1	1.999348E-4	1.188287E-3	4.197862E-4	4.456206E-3	4.343804E-3	2.430390E-3	7.720615E-3
10/19/2017  17:43:32.489206	3.993573E-1	4.689877E-3	5.724483E-3	3.769121E-4	6.365020E-3	3.293431E-3	4.566914E-3	2.645810E-3
10/19/2017  17:43:32.490206	7.719876E-1	1.347396E-2	4.813559E-3	4.348070E-3	8.527913E-3	5.043709E-3	3.036840E-3	2.656032E-3
10/19/2017  17:43:32.491206	1.435110E+0	5.015040E-3	1.712341E-2	1.085301E-3	4.788700E-3	2.166017E-2	7.189439E-5	4.783762E-3
10/19/2017  17:43:32.492206	7.221079E-3	6.583225E-3	7.389990E-3	8.379726E-3	6.644408E-3	7.504972E-3	7.140622E-3	1.846060E-3
10/19/2017  17:43:32.493206	1.901546E+0	6.229795E-3	3.313729E-3	2.224297E-3	3.600381E-3	6.440650E-4	8.736506E-4	1.004220E-2
10/19/2017  17:43:32.494206	9.860932E-1	7.653852E-3	1.002004E-2	1.945821E-2	1.851704E-3	5.205246E-3	7.656102E-3	8.118783E-3
10/19/2017  17:43:32.495206	4.360564E-1	9.981372E-3	7.853972E-3	1.417356E-2	8.811624E-3	3.669567E-4	5.433338E-3	4.685481E-3
10/19/2017  17:43:32.496206	3.454348E-1	3.733344E-3	2.871740E-3	1.862886E-2	6.527990E-3	7.439917E-3	4.771597E-3	6.400864E-3
10/19/2017  17:43:32.497206	2.177757E-1	7.257096E-4	4.910266E-3	5.364402E-3	6.680911E-4	7.078544E-4	7.553408E-3	3.086929E-3
10/19/2017  17:43:32.498206	8.070018E-1	2.847020E-3	5.139475E-3	4.556513E-3	1.136544E-2	5.267810E-3	1.511784E-3	2.113109E-3
10/19/2017  17:43:32.499206	2.055821E-1	7.110186E-3	4.684818E-4	1.494412E-2	2.051300E-3	9.679359E-3	3.645668E-3	4.162728E-3
10/19/2017  17:43:32.500206	8.487222E-1	9.279813E-4	5.227252E-3	1.533518E-3	6.363915E-3	1.189585E-3	1.309366E-2	3.511888E-3
10/19/2017  17:43:32.501206	7.754036E-1	5.391626E-3	9.551865E-3	3.254332E-3	8.849565E-3	1.039790E-2	5.673789E-3	8.798029E-3
10/19/2017  17:43:32.502206	1.010131E+0	9.638517E-3	3.211857E-3	2.115620E-3	2.859160E-3	1.004222E-2	2.806202E-3	3.826512E-4
10/19/2017  17:43:32.503206	1.269752E-1	1.185928E-3	1.159580E-2	1.603893E-2	6.959443E-3	3.831092E-3	6.674254E-3	2.602940E-3
10/19/2017  17:43:32.504206	6.346858E-1	1.314816E-3	2.922967E-3	2.826485E-3	8.283902E-3	3.831011E-3	8.805016E-3	4.445938E-3
10/19/2017  17:43:32.505206	4.215004E-1	8.295941E-3	4.469751E-3	7.070646E-3	4.671813E-3	3.255337E-3	1.481950E-2	8.116790E-3
10/19/2017  17:43:32.506206	1.796649E-1	2.400653E-3	1.510638E-2	3.542457E-3	5.503558E-3	8.992438E-3	6.018575E-3	6.071216E-5
10/19/2017  17:43:32.507206	4.325461E-1	6.764973E-3	5.982713E-3	6.540506E-3	2.330234E-3	5.259585E-4	4.879586E-3	4.647558E-3
10/19/2017  17:43:32.508206	2.343979E-1	8.360762E-3	2.705053E-3	1.392491E-3	1.213293E-2	1.980915E-3	7.870052E-3	7.931401E-3
10/19/2017  17:43:32.509206	1.423194E+0	2.343235E-3	1.098318E-4	3.408964E-3	8.636519E-3	5.287703E-3	6.888302E-3	4.455460E-3
10/19/2017  17:43:32.510206	1.146309E+0	6.714318E-3	7.186910E-3	9.002555E-3	5.020396E-3	9.704795E-3	3.394975E-3	1.026091E-2
10/19/2017  17:43:32.511206	6.456215E-1	1.375323E-3	7.999736E-3	1.676794E-3	7.502509E-3	1.125960E-3	6.665029E-3	3.866653E-3
10/19/2017  17:43:32.512206	1.415663E+0	1.056637E-2	7.346411E-3	8.367326E-3	1.588467E-3	1.030269E-2	3.617722E-3	1.619065E-3
10/19/2017  17:43:32.513206	6.363865E-1	1.457549E-2	3.863962E-3	2.484390E-3	5.806139E-3	7.819484E-3	2.926213E-3	3.106909E-3
10/19/2017  17:43:32.514206	1.357039E-3	1.762184E-3	6.177524E-3	5.368660E-5	2.078430E-3	9.043327E-3	7.070918E-3	6.995221E-3
10/19/2017  17:43:32.515206	4.277387E-1	3.888794E-3	5.582750E-4	1.626794E-2	1.690731E-3	5.946435E-4	3.756872E-3	9.105631E-4
10/19/2017  17:43:32.516206	5.975610E-1	8.414903E-3	6.559209E-3	5.368762E-3	8.061879E-3	4.444343E-4	6.129665E-3	7.596709E-3
								
10/19/2017  17:43:32.517206	3.880782E-1	2.883962E-6	6.243438E-3	7.264308E-3	9.195640E-3	3.070459E-4	4.297083E-3	3.241652E-3
10/19/2017  17:43:32.518206	7.895839E-1	7.139106E-3	6.220414E-4	2.928195E-3	1.701212E-3	1.818929E-4	3.722309E-3	5.383626E-3
10/19/2017  17:43:32.519206	6.634445E-1	9.473017E-4	1.808726E-3	4.890036E-3	1.256055E-2	2.275045E-3	3.186567E-3	1.173212E-4
10/19/2017  17:43:32.520206	1.197661E+0	1.575919E-3	5.532290E-3	2.485650E-4	1.073321E-2	6.679597E-3	5.030837E-3	2.689018E-3
10/19/2017  17:43:32.521206	4.883974E-1	6.040507E-3	2.372723E-3	6.938229E-3	4.862054E-3	5.649142E-3	7.528035E-3	6.867947E-3
10/19/2017  17:43:32.522206	1.295835E+0	1.965226E-3	4.360952E-3	3.903117E-3	7.609072E-4	7.014423E-3	2.984538E-3	3.162700E-3
10/19/2017  17:43:32.523206	1.419826E+0	1.708036E-3	8.076604E-3	1.344503E-3	5.528649E-3	1.073214E-3	4.835658E-3	2.306801E-3
10/19/2017  17:43:32.524206	2.755045E-1	8.718944E-4	4.913433E-3	2.262385E-2	2.235052E-3	3.794122E-3	1.474319E-2	3.152735E-3
10/19/2017  17:43:32.525206	1.915236E-1	5.390916E-3	6.495712E-3	2.884272E-3	7.650424E-3	3.189030E-3	3.958262E-3	3.077421E-3
10/19/2017  17:43:32.526206	2.091947E-1	2.123991E-3	6.314424E-3	9.210787E-3	4.200500E-3	9.084689E-3	8.064408E-3	1.002178E-2
10/19/2017  17:43:32.527206	3.088739E-1	7.711530E-3	3.043502E-3	4.094733E-3	1.052597E-2	4.046023E-3	4.954036E-3	6.429064E-3
10/19/2017  17:43:32.528206	7.957465E-3	4.360046E-4	2.322535E-4	1.078284E-3	2.946635E-3	8.107318E-3	5.136186E-3	3.721685E-3
10/19/2017  17:43:32.529206	9.364741E-2	7.340801E-3	1.387776E-2	7.611671E-4	2.599536E-3	1.198557E-2	4.269677E-4	1.778560E-3
10/19/2017  17:43:32.530206	6.260444E-1	1.386263E-3	2.461752E-3	1.866008E-3	4.773830E-3	1.575400E-3	7.493136E-3	1.744781E-3
10/19/2017  17:43:32.531206	1.327135E-1	9.942762E-4	1.630511E-2	6.152258E-4	7.821208E-3	8.376417E-3	7.679760E-3	4.044649E-3
10/19/2017  17:43:32.532206	3.259340E-1	1.703552E-3	9.660233E-3	5.055600E-3	2.728859E-3	7.050407E-3	7.656460E-3	8.294462E-3
10/19/2017  17:43:32.533206	5.901785E-1	8.667796E-3	5.781408E-3	1.469570E-2	2.253106E-3	1.302620E-2	6.526901E-3	9.291451E-3
10/19/2017  17:43:32.534206	7.959709E-1	1.833014E-2	6.966395E-3	7.822505E-3	1.227207E-2	3.158682E-3	3.879967E-3	1.680221E-3
10/19/2017  17:43:32.535206	7.478159E-1	1.165636E-3	1.053425E-3	9.838500E-3	1.396557E-3	4.231977E-3	3.736385E-3	1.599742E-3
10/19/2017  17:43:32.536206	6.037245E-1	1.577296E-2	1.537090E-3	5.946030E-3	8.286539E-3	8.303086E-3	6.242371E-3	1.514412E-3
10/19/2017  17:43:32.537206	1.828993E-1	4.185526E-3	8.409689E-3	2.120720E-3	5.966749E-5	2.437693E-3	5.749074E-4	3.768421E-3
10/19/2017  17:43:32.538206	1.246479E-1	1.336734E-3	4.618127E-3	8.939971E-3	1.418646E-2	2.241896E-4	4.386278E-4	3.291052E-3
10/19/2017  17:43:32.539206	2.107973E-2	3.593685E-3	1.547833E-3	5.412487E-4	1.533453E-4	4.551632E-3	2.654680E-3	6.530498E-3
10/19/2017  17:43:32.540206	2.138184E-2	3.123721E-3	3.610229E-3	2.782630E-3	4.719994E-3	1.517453E-3	6.838205E-3	1.099251E-2
10/19/2017  17:43:32.541206	1.688096E-1	3.436431E-4	6.411199E-3	2.297626E-3	2.938814E-3	1.265703E-3	3.266431E-3	5.475178E-5
10/19/2017  17:43:32.542206	1.789449E-1	5.010024E-3	3.918265E-3	4.193784E-3	2.345471E-3	3.377236E-3	6.845039E-3	1.412123E-2
10/19/2017  17:43:32.543206	3.138657E-1	2.811023E-3	3.254117E-3	1.512029E-2	6.499966E-3	4.250792E-3	1.045118E-3	2.236535E-3
10/19/2017  17:43:32.544206	7.672107E-2	4.644522E-3	3.010252E-4	1.610478E-3	5.350761E-4	1.042587E-3	6.896118E-4	2.030254E-3
10/19/2017  17:43:32.545206	3.696973E-1	6.223292E-3	4.558827E-3	4.083348E-3	2.200301E-3	1.489215E-2	2.710652E-3	5.200183E-3
10/19/2017  17:43:32.546206	5.503418E-2	2.792257E-3	1.596830E-3	1.461316E-3	4.885691E-3	4.013477E-3	4.379489E-3	2.790165E-3
10/19/2017  17:43:32.547206	1.743281E-1	2.179773E-3	9.337093E-4	6.273435E-3	5.621892E-3	8.300212E-3	1.067082E-2	7.193888E-3
10/19/2017  17:43:32.548206	5.258705E-3	7.217953E-4	8.655992E-3	3.774656E-3	3.919740E-4	9.248514E-3	2.240478E-3	5.563929E-3
10/19/2017  17:43:32.549206	2.165408E-1	3.842786E-3	2.618674E-3	1.590577E-2	6.629614E-4	8.791948E-3	4.931351E-3	9.454551E-3
								
10/19/2017  17:43:32.550206	4.849696E-1	1.343492E-2	2.540042E-3	8.970165E-3	1.499417E-2	7.595593E-3	7.794447E-3	3.330557E-3
10/19/2017  17:43:32.551206	5.576183E-1	2.163484E-3	1.444746E-4	1.710007E-3	1.207154E-3	2.883843E-3	4.918383E-3	6.601630E-3
10/19/2017  17:43:32.552206	3.762941E-1	8.981760E-3	2.417969E-3	3.324674E-3	5.536638E-3	1.169662E-2	7.615986E-4	6.136099E-3
10/19/2017  17:43:32.553206	3.092648E-1	2.942466E-3	7.409265E-3	1.820728E-3	1.200844E-2	1.854370E-3	8.977077E-4	4.580191E-4
10/19/2017  17:43:32.554206	3.298538E-1	1.242006E-4	7.537022E-4	8.755092E-4	3.265644E-3	3.959394E-3	3.354868E-3	7.342030E-3
10/19/2017  17:43:32.555206	2.264955E-1	2.116305E-2	6.371839E-4	7.847460E-3	4.190370E-3	6.019394E-3	3.962317E-3	3.707058E-3
10/19/2017  17:43:32.556206	1.920249E-1	3.434676E-3	1.119307E-2	1.941952E-3	8.329976E-3	1.994067E-3	8.627060E-3	5.611763E-4
10/19/2017  17:43:32.557206	1.577705E-1	1.724789E-2	2.355616E-3	1.247515E-2	2.287415E-3	2.944685E-3	5.156278E-3	2.110996E-4
10/19/2017  17:43:32.558206	1.005998E-1	2.985741E-3	2.105577E-3	8.281186E-3	4.767651E-4	2.408232E-3	2.151322E-3	6.923866E-3
10/19/2017  17:43:32.559206	1.159328E-1	2.564356E-3	7.507019E-3	4.693055E-3	9.864210E-3	1.917592E-3	4.232023E-4	1.326352E-2
10/19/2017  17:43:32.560206	1.058856E-1	4.517966E-3	3.191716E-3	1.095130E-2	1.086303E-3	5.559867E-3	6.768748E-3	6.813864E-3
10/19/2017  17:43:32.561206	3.102244E-2	5.599419E-3	2.859401E-3	4.988338E-3	8.020957E-3	2.218828E-3	1.267727E-3	1.073856E-3
10/19/2017  17:43:32.562206	1.591719E-1	2.286020E-3	2.027704E-4	2.044672E-3	2.634446E-3	5.273932E-3	3.638672E-3	1.631657E-3
10/19/2017  17:43:32.563206	2.478096E-1	4.260995E-3	4.984291E-3	7.507071E-3	1.021810E-4	9.227344E-3	1.616032E-3	1.329259E-2
10/19/2017  17:43:32.564206	3.813197E-1	1.149266E-3	6.638318E-3	1.316483E-2	4.773785E-3	5.437117E-3	1.373771E-3	4.038349E-4
10/19/2017  17:43:32.565206	5.464201E-2	5.730166E-3	8.452939E-3	5.665262E-3	7.167936E-4	1.944591E-4	1.188254E-3	3.001911E-4
10/19/2017  17:43:32.566206	3.495069E-1	2.168158E-3	2.292198E-3	2.829538E-3	1.679093E-3	4.976779E-3	8.367885E-3	4.482418E-3
10/19/2017  17:43:32.567206	2.921030E-1	8.842101E-3	1.138359E-2	5.094250E-3	1.007630E-3	2.739625E-3	4.661694E-3	5.572308E-3
10/19/2017  17:43:32.568206	5.310950E-1	6.699028E-3	2.146535E-3	6.966329E-3	3.276135E-3	2.467883E-3	6.141018E-3	7.001581E-3
10/19/2017  17:43:32.569206	3.570269E-1	1.062200E-3	1.360589E-2	1.442961E-3	6.584450E-3	2.173391E-3	4.398248E-3	1.253312E-3
10/19/2017  17:43:32.570206	1.743408E-2	1.387668E-3	2.846199E-4	3.781640E-3	7.754390E-4	4.440658E-4	3.923558E-3	1.122018E-3
10/19/2017  17:43:32.571206	1.850736E-1	1.102603E-3	7.382469E-3	5.725553E-3	8.864345E-3	4.373158E-3	5.818624E-3	7.801271E-3
10/19/2017  17:43:32.572206	1.844395E-1	1.500488E-3	7.786076E-3	4.962316E-3	5.189954E-3	1.377441E-3	9.698097E-3	3.043675E-3
10/19/2017  17:43:32.573206	1.674889E-1	5.678384E-3	5.419512E-4	2.782247E-3	2.694071E-3	1.053508E-2	1.153821E-3	5.191956E-3
10/19/2017  17:43:32.574206	2.511538E-1	1.876908E-2	2.916596E-3	2.406300E-3	1.170418E-2	2.920160E-3	1.432810E-3	2.275091E-3
10/19/2017  17:43:32.575206	1.270904E-1	2.897095E-3	2.089647E-4	2.567878E-4	1.935712E-3	4.934088E-3	1.274487E-3	4.467896E-3
10/19/2017  17:43:32.576206	6.468530E-2	1.593478E-4	2.599750E-3	1.658568E-2	1.113941E-2	1.899076E-3	3.473184E-3	1.593879E-3
10/19/2017  17:43:32.577206	3.835201E-2	2.523131E-3	9.286279E-3	4.946447E-3	4.680035E-3	1.645852E-3	6.160453E-4	1.484518E-3
10/19/2017  17:43:32.578206	1.511864E-1	9.560768E-3	1.569819E-3	9.092410E-3	1.606486E-3	5.618516E-3	1.118171E-2	3.308532E-3
10/19/2017  17:43:32.579206	7.333544E-2	3.741011E-3	1.311192E-2	6.260847E-3	3.368770E-3	2.350293E-3	2.378155E-3	6.731264E-3
10/19/2017  17:43:32.580206	2.686559E-1	3.270823E-3	7.018452E-4	4.470492E-4	5.197407E-3	9.086649E-3	1.152281E-2	1.232162E-3
10/19/2017  17:43:32.581206	1.610192E-1	6.538475E-3	7.728711E-3	2.151088E-3	3.673259E-4	6.400901E-3	4.278700E-3	5.627936E-3
10/19/2017  17:43:32.582206	1.083729E-2	1.626891E-3	7.505290E-3	1.136860E-2	2.742452E-3	3.970451E-3	8.259780E-3	2.433868E-3
								
10/19/2017  17:43:32.583206	1.665745E-1	8.541698E-3	1.581992E-3	2.316491E-2	2.380751E-3	3.682215E-3	1.852780E-4	6.907143E-3
10/19/2017  17:43:32.584206	8.374852E-1	2.096710E-3	1.050074E-2	6.452864E-3	6.746626E-3	3.930540E-3	5.017629E-3	1.515683E-2
10/19/2017  17:43:32.585206	4.289022E-1	4.066545E-3	5.166648E-3	1.040660E-2	1.375341E-3	6.062615E-3	4.989197E-3	5.564639E-3
10/19/2017  17:43:32.586206	5.538172E-1	1.071901E-2	5.047426E-3	4.355392E-4	1.059881E-2	1.937702E-3	4.038824E-3	9.686238E-3
10/19/2017  17:43:32.587206	7.188281E-1	4.986162E-3	6.617043E-3	2.490243E-4	2.850703E-3	1.673867E-3	3.169286E-3	3.771045E-3
10/19/2017  17:43:32.588206	7.024516E-1	4.191339E-3	1.516300E-3	9.293740E-3	1.407362E-4	3.256889E-3	4.650677E-3	1.055316E-3
10/19/2017  17:43:32.589206	2.359634E-1	3.567601E-3	3.716338E-3	8.571536E-4	6.852756E-3	3.687868E-4	4.216499E-3	8.117027E-3
10/19/2017  17:43:32.590206	4.805415E-1	1.010986E-2	1.023115E-2	8.663040E-3	6.097416E-3	1.146273E-2	1.466176E-3	4.637891E-3
10/19/2017  17:43:32.591206	3.629249E-1	7.898813E-3	7.812565E-3	2.124586E-3	9.972061E-3	2.681077E-4	3.810559E-3	3.970526E-3
10/19/2017  17:43:32.592206	3.606603E-1	3.490146E-4	4.193241E-4	4.215040E-3	9.540123E-4	2.564304E-2	3.420251E-3	1.007918E-3
10/19/2017  17:43:32.593206	2.758150E-1	9.059632E-3	3.681081E-4	8.138156E-3	7.863610E-3	4.393787E-4	3.054718E-3	3.162951E-3
10/19/2017  17:43:32.594206	4.425845E-1	5.248576E-4	4.366752E-3	4.930249E-3	4.682477E-4	1.159011E-2	2.712942E-3	6.771343E-3
10/19/2017  17:43:32.595206	2.984153E-1	9.072929E-3	3.396141E-3	1.126629E-2	4.206214E-3	4.116156E-3	7.078827E-3	5.749355E-3
10/19/2017  17:43:32.596206	8.216022E-1	3.982121E-3	5.668814E-4	7.976676E-5	1.066398E-3	1.360812E-3	5.699760E-3	2.217139E-3
10/19/2017  17:43:32.597206	4.313728E-1	1.545427E-2	1.838082E-3	2.388186E-3	7.775561E-3	1.068516E-2	7.373913E-5	4.261458E-3
10/19/2017  17:43:32.598206	7.645916E-1	1.052960E-3	8.541797E-3	4.918334E-3	7.780321E-3	2.063842E-3	4.704297E-3	1.253013E-3
10/19/2017  17:43:32.599206	1.191557E+0	8.023313E-3	4.638961E-3	4.010761E-3	2.593550E-3	7.621360E-3	7.695122E-3	3.664030E-3
10/19/2017  17:43:32.600206	6.111901E-1	7.247995E-3	1.706392E-3	6.203850E-3	1.957511E-3	6.602515E-4	6.406208E-3	6.264702E-3
10/19/2017  17:43:32.601206	9.203300E-1	1.366641E-3	5.486261E-3	5.427111E-3	1.036369E-2	7.682784E-3	4.143835E-3	2.889351E-3
10/19/2017  17:43:32.602206	3.971328E-1	5.990343E-3	2.553375E-3	9.360335E-3	4.401330E-4	5.134963E-4	6.025010E-3	9.392886E-3
10/19/2017  17:43:32.603206	3.554822E-1	4.239695E-3	2.318490E-3	6.733492E-4	4.897050E-3	4.330904E-4	4.161056E-3	1.385211E-3
10/19/2017  17:43:32.604206	5.581514E-1	1.146837E-3	2.470235E-4	7.349709E-3	3.135688E-3	2.704000E-3	1.306159E-3	1.135588E-3
10/19/2017  17:43:32.605206	9.969574E-2	8.453343E-4	6.966486E-5	3.510696E-3	1.227171E-2	8.932768E-5	5.934331E-3	6.126102E-3
10/19/2017  17:43:32.606206	2.881989E-1	2.915455E-3	7.122336E-3	8.404647E-3	8.310275E-3	4.571230E-3	4.210927E-4	1.844108E-3
10/19/2017  17:43:32.607206	2.234039E-1	9.314323E-3	5.614965E-3	7.407621E-3	2.178361E-3	1.262379E-2	4.235929E-4	3.894488E-3
10/19/2017  17:43:32.608206	1.606704E+0	6.473465E-3	6.970656E-3	3.515141E-4	1.010623E-2	1.063976E-3	9.791080E-3	8.942416E-4
10/19/2017  17:43:32.609206	1.023793E+0	1.042973E-2	1.541972E-2	1.249377E-4	1.618450E-3	1.032613E-2	1.123637E-3	6.740992E-4
10/19/2017  17:43:32.610206	4.086632E-1	1.132225E-2	3.754257E-3	1.227474E-2	3.253418E-3	6.896421E-4	1.006657E-3	1.871649E-3
10/19/2017  17:43:32.611206	4.032924E-1	2.119076E-3	8.428720E-4	1.002352E-3	4.399791E-3	7.687348E-3	3.241888E-3	6.358992E-3
10/19/2017  17:43:32.612206	6.326693E-1	5.605680E-4	7.054369E-4	7.551181E-3	9.036258E-4	5.218083E-3	1.925593E-3	1.624484E-3
10/19/2017  17:43:32.613206	7.339850E-1	1.859627E-3	2.923028E-3	8.109978E-3	6.940663E-4	6.731479E-3	5.428847E-3	9.981976E-4
10/19/2017  17:43:32.614206	6.918894E-1	3.890268E-3	7.655435E-5	4.899796E-3	6.540333E-3	1.444287E-3	2.450426E-3	8.715690E-4
10/19/2017  17:43:32.615206	1.967503E-1	6.153155E-3	4.690141E-3	4.906667E-3	8.524843E-4	1.005677E-3	2.077209E-3	1.586904E-3
								
10/19/2017  17:43:32.616206	4.423209E-1	1.351970E-2	3.852267E-3	9.185084E-4	1.338330E-2	6.305793E-3	5.295512E-3	1.036917E-3
10/19/2017  17:43:32.617206	6.772332E-1	4.210254E-4	8.637508E-3	8.211022E-3	5.421651E-4	3.969903E-3	2.243712E-4	9.108424E-4
10/19/2017  17:43:32.618206	5.270277E-1	9.909150E-3	3.787480E-4	2.106119E-3	1.940330E-2	1.422537E-3	6.807277E-3	1.547608E-3
10/19/2017  17:43:32.619206	9.119371E-1	1.438214E-3	7.437735E-3	1.028381E-2	4.766517E-3	1.296484E-3	6.051549E-3	1.267626E-3
10/19/2017  17:43:32.620206	3.167568E-2	1.080271E-3	3.959042E-3	4.262381E-3	1.733316E-3	1.168088E-3	4.922602E-4	8.363664E-3
10/19/2017  17:43:32.621206	7.087916E-1	3.826721E-3	5.645793E-3	3.240365E-3	8.578606E-4	5.586408E-3	1.889131E-3	2.374495E-3
10/19/2017  17:43:32.622206	1.099485E+0	9.129400E-4	9.409278E-3	6.854471E-3	6.353885E-3	4.798501E-3	3.886371E-3	9.768130E-3
10/19/2017  17:43:32.623206	3.294793E-1	3.915840E-3	8.408778E-3	1.267607E-3	4.045507E-3	5.053205E-4	1.086604E-2	1.201988E-3
10/19/2017  17:43:32.624206	3.228581E-1	8.437741E-3	4.664411E-3	8.178309E-3	1.275910E-3	2.033795E-3	2.166846E-3	1.077329E-2
10/19/2017  17:43:32.625206	2.640768E-1	2.276424E-3	9.223782E-4	3.273791E-4	3.617277E-3	1.822328E-3	2.903727E-3	9.660947E-3
10/19/2017  17:43:32.626206	1.077322E-1	4.313910E-3	3.315278E-3	7.546184E-3	5.371810E-3	1.621781E-3	4.537681E-3	1.101644E-3
10/19/2017  17:43:32.627206	7.571544E-2	1.275500E-2	1.721999E-3	1.854876E-3	2.595062E-4	3.254934E-3	7.948719E-3	3.836619E-3
10/19/2017  17:43:32.628206	9.725097E-2	5.730871E-3	1.982201E-2	6.383294E-3	2.003752E-3	1.139590E-2	2.052193E-3	6.076783E-3
10/19/2017  17:43:32.629206	7.211176E-3	7.293249E-3	6.688385E-3	1.582018E-3	3.890304E-3	2.503880E-4	1.468801E-2	3.481042E-4
10/19/2017  17:43:32.630206	1.918918E-2	8.414466E-4	9.685432E-4	1.055246E-3	8.661898E-3	9.215385E-3	4.088748E-3	1.624560E-4
10/19/2017  17:43:32.631206	1.463206E-2	5.388847E-3	1.552220E-3	1.414675E-3	4.238922E-4	3.955407E-3	1.239763E-3	4.682388E-3
10/19/2017  17:43:32.632206	4.293322E-2	1.961593E-4	5.706859E-3	5.842529E-3	1.361120E-2	5.707624E-3	5.871182E-3	1.420570E-3
10/19/2017  17:43:32.633206	6.026975E-2	2.594776E-3	4.616987E-3	2.196444E-3	1.224299E-2	4.597649E-3	6.915787E-3	1.074937E-2
10/19/2017  17:43:32.634206	5.366586E-2	6.945667E-3	5.435565E-3	1.133444E-2	3.505620E-3	2.186215E-2	1.291509E-3	1.394565E-4
10/19/2017  17:43:32.635206	1.070886E+0	1.179765E-3	2.174083E-3	6.855246E-3	8.642187E-3	2.835598E-3	3.490994E-3	2.342078E-3
10/19/2017  17:43:32.636206	9.956773E-1	9.583166E-4	7.657737E-3	3.450614E-3	9.353891E-3	9.712871E-3	8.898171E-3	7.541006E-3
10/19/2017  17:43:32.637206	8.835985E-1	7.787051E-3	8.873661E-3	1.354813E-2	6.018373E-3	5.650745E-3	1.776157E-3	2.908778E-3
10/19/2017  17:43:32.638206	4.719177E-1	5.265713E-3	8.964418E-3	3.459403E-4	2.536538E-3	1.415735E-4	3.781154E-3	1.963872E-5
10/19/2017  17:43:32.639206	1.355530E+0	6.907932E-3	1.797512E-3	5.107805E-3	4.609824E-4	2.724823E-3	3.087971E-3	9.304177E-5
10/19/2017  17:43:32.640206	9.772016E-1	1.186996E-3	6.217091E-3	4.975611E-3	5.360090E-3	2.552329E-3	2.230785E-3	4.495012E-3
10/19/2017  17:43:32.641206	8.503941E-1	1.340066E-3	6.525407E-3	6.119725E-4	6.571877E-5	4.226566E-5	2.645774E-3	1.276371E-2
10/19/2017  17:43:32.642206	9.895613E-1	3.561092E-3	8.485959E-4	5.358238E-3	9.675364E-3	7.296525E-3	2.626844E-3	1.476079E-3
10/19/2017  17:43:32.643206	1.668248E+0	4.042602E-3	1.633064E-3	2.395874E-3	1.273506E-3	5.377134E-3	4.734011E-3	1.252012E-3
10/19/2017  17:43:32.644206	4.687221E-1	1.270351E-3	5.661374E-3	7.480979E-3	3.519403E-3	3.480353E-4	5.580307E-4	1.299033E-3
10/19/2017  17:43:32.645206	1.486797E+0	1.513525E-2	4.630677E-3	6.397432E-3	4.206109E-3	9.898942E-3	9.017932E-3	1.237115E-3
10/19/2017  17:43:32.646206	2.408629E+0	8.443270E-3	3.927980E-3	1.335793E-2	8.364394E-3	5.546743E-3	6.390422E-3	8.345241E-3
10/19/2017  17:43:32.647206	4.941608E-1	7.264280E-3	6.098252E-3	6.495925E-3	2.393431E-3	4.856235E-3	2.987036E-3	2.312482E-3
10/19/2017  17:43:32.648206	8.724444E-1	1.022613E-2	1.879393E-3	1.114731E-2	2.706113E-3	4.256029E-3	4.627466E-3	4.951042E-4
								
10/19/2017  17:43:32.649206	6.026577E-1	3.183592E-3	1.565813E-2	1.954033E-4	1.178864E-2	3.332749E-3	6.350486E-3	6.498510E-3
10/19/2017  17:43:32.650206	4.505365E-1	4.697550E-4	1.036395E-2	2.635179E-3	4.251531E-3	3.535403E-4	3.977768E-3	4.056988E-3
10/19/2017  17:43:32.651206	2.283502E-2	4.176486E-3	4.189722E-3	1.171718E-2	1.036910E-2	6.870421E-3	6.047238E-3	8.283092E-3
10/19/2017  17:43:32.652206	8.092412E-2	1.537294E-2	1.097532E-3	4.169186E-3	1.495631E-3	8.173306E-3	1.918845E-3	6.978093E-3
10/19/2017  17:43:32.653206	4.431578E-2	1.311380E-3	8.781316E-4	1.178878E-3	9.797637E-4	9.116818E-3	1.629200E-3	3.594832E-3
10/19/2017  17:43:32.654206	1.559677E-1	1.298146E-2	5.366351E-3	5.658205E-3	1.834678E-3	4.264907E-3	1.364059E-3	3.878424E-3
10/19/2017  17:43:32.655206	2.233900E-1	3.173611E-3	2.068656E-3	1.679357E-6	1.126262E-2	7.857431E-3	5.807054E-3	7.946754E-4
10/19/2017  17:43:32.656206	1.516455E-1	5.131368E-3	1.581046E-3	9.496819E-3	5.041307E-3	1.008632E-2	6.894212E-3	8.867020E-3
10/19/2017  17:43:32.657206	1.452379E-1	4.388419E-3	1.138153E-3	1.538858E-2	4.990849E-3	1.763546E-3	8.218254E-3	4.132567E-3
10/19/2017  17:43:32.658206	1.076234E-1	3.326455E-3	8.640595E-3	3.473734E-3	2.180008E-2	4.060431E-3	4.817829E-3	1.066626E-2
10/19/2017  17:43:32.659206	7.597517E-3	2.801986E-3	4.261600E-3	2.002670E-3	7.411133E-3	1.065159E-2	2.915868E-3	6.686793E-3
10/19/2017  17:43:32.660206	6.968834E-3	4.709333E-3	1.082134E-3	5.087251E-3	6.269587E-3	4.977533E-3	1.412353E-2	1.466060E-3
10/19/2017  17:43:32.661206	9.195764E-2	1.652287E-3	1.336120E-2	1.242701E-2	4.175307E-3	5.692393E-4	9.344658E-3	1.343807E-3
10/19/2017  17:43:32.662206	5.526639E-2	7.993226E-3	2.011030E-3	9.947771E-4	1.245042E-3	5.269687E-3	1.298811E-3	1.060424E-2
10/19/2017  17:43:32.663206	1.240149E-1	2.017866E-3	6.104995E-4	1.236147E-2	1.255259E-3	2.525488E-3	3.748683E-3	4.274110E-3
10/19/2017  17:43:32.664206	3.779328E-2	3.081574E-3	1.124056E-2	6.303652E-3	3.687206E-3	2.080390E-3	5.650443E-3	1.052443E-2
10/19/2017  17:43:32.665206	1.968344E-2	4.342438E-3	9.324879E-3	2.208012E-2	6.257304E-3	7.696226E-3	6.855649E-3	4.842903E-4
10/19/2017  17:43:32.666206	3.567601E-2	1.050578E-2	1.025128E-2	2.322195E-3	4.175267E-3	5.100293E-4	6.047468E-3	5.137620E-3
10/19/2017  17:43:32.667206	3.499223E-2	4.560208E-4	7.849036E-3	6.581343E-3	1.062949E-2	4.416208E-4	2.872577E-3	2.691495E-3
10/19/2017  17:43:32.668206	3.760894E-3	2.722786E-3	1.439923E-2	3.962513E-3	7.517234E-3	2.726220E-3	6.881159E-3	4.612327E-3
10/19/2017  17:43:32.669206	5.531974E-3	9.447699E-3	2.074592E-3	5.895531E-3	6.382763E-3	4.634855E-3	3.672018E-3	8.498933E-4
10/19/2017  17:43:32.670206	7.041350E-2	8.463925E-3	1.134771E-2	9.271116E-3	6.417932E-4	5.518559E-3	7.902192E-3	6.236622E-3
10/19/2017  17:43:32.671206	2.645366E-2	4.813422E-3	2.020472E-3	1.030510E-2	5.154791E-3	2.847962E-6	5.001239E-3	1.895624E-3
10/19/2017  17:43:32.672206	2.413092E-2	5.375765E-3	7.308526E-4	7.707609E-3	5.178433E-3	7.024992E-3	1.832143E-3	8.781992E-3
10/19/2017  17:43:32.673206	3.301375E-3	9.270051E-3	3.059289E-3	1.697060E-2	2.060754E-4	1.053126E-2	5.568308E-3	1.881094E-3
10/19/2017  17:43:32.674206	2.790532E-2	6.289923E-3	6.724012E-3	4.863476E-3	2.419871E-3	4.203695E-3	4.615758E-3	6.214846E-3
10/19/2017  17:43:32.675206	4.740358E-2	1.238910E-2	1.472702E-3	5.481508E-3	1.217887E-2	3.569008E-3	3.828021E-3	2.778008E-3
10/19/2017  17:43:32.676206	4.166344E-2	3.680941E-3	6.069670E-3	1.185760E-2	1.421203E-3	7.545779E-4	8.605155E-3	2.526015E-3
10/19/2017  17:43:32.677206	6.339713E-2	7.902696E-3	5.190037E-4	7.104669E-4	1.054395E-2	1.635946E-3	4.372439E-3	2.368075E-3
10/19/2017  17:43:32.678206	1.340925E-2	2.014630E-3	5.181039E-3	2.971311E-3	1.770213E-3	1.293143E-3	3.411633E-3	1.226576E-2
10/19/2017  17:43:32.679206	5.047210E-2	1.677868E-3	6.726584E-3	4.854451E-3	1.341883E-3	3.321019E-3	7.634699E-3	3.447988E-3
10/19/2017  17:43:32.680206	2.471071E-1	5.661862E-3	3.773543E-3	4.046202E-3	1.396487E-3	7.333728E-3	1.752927E-3	8.761105E-3
10/19/2017  17:43:32.681206	3.618500E-1	4.581448E-3	5.609123E-3	9.615473E-4	3.712303E-3	8.113682E-3	5.605802E-3	4.947484E-3
								
10/19/2017  17:43:32.682206	3.953364E-1	6.184788E-3	1.165595E-2	7.708050E-3	8.454161E-3	4.730530E-3	6.956733E-3	3.045610E-3
10/19/2017  17:43:32.683206	1.589033E-1	4.253236E-3	6.667995E-3	3.086946E-3	2.477259E-3	7.562581E-3	8.239541E-3	6.603800E-3
10/19/2017  17:43:32.684206	1.946446E-1	3.339719E-3	8.073816E-3	4.917943E-4	7.036391E-3	3.202370E-3	9.322396E-3	8.734828E-3
10/19/2017  17:43:32.685206	8.691892E-1	2.705610E-3	7.242640E-3	8.743907E-3	3.266737E-3	2.936378E-3	6.274361E-3	5.618901E-4
10/19/2017  17:43:32.686206	2.830203E-1	4.903714E-3	9.543861E-4	6.990590E-3	4.481988E-3	6.688249E-3	5.380020E-3	6.372521E-3
10/19/2017  17:43:32.687206	2.701308E-1	9.782893E-3	1.475342E-3	6.195598E-3	1.335860E-2	6.331582E-3	4.815387E-3	4.509844E-4
10/19/2017  17:43:32.688206	2.474978E-1	1.025058E-3	3.513711E-3	6.274288E-3	5.110510E-3	5.596837E-3	1.694714E-3	4.591282E-3
10/19/2017  17:43:32.689206	4.037814E-1	6.431521E-3	8.874390E-3	6.682213E-3	6.624968E-3	2.116746E-3	8.003671E-3	2.893161E-3
10/19/2017  17:43:32.690206	2.671945E-1	1.369982E-3	5.248066E-4	5.875318E-3	8.618840E-3	3.090298E-3	2.079174E-3	2.519306E-3
10/19/2017  17:43:32.691206	2.231279E-1	3.276656E-3	8.908834E-3	4.313682E-4	1.205467E-2	1.919637E-2	6.345152E-4	4.748265E-3
10/19/2017  17:43:32.692206	1.970909E-1	2.187385E-3	5.075111E-3	2.844412E-3	3.973887E-3	1.813236E-4	1.751995E-3	4.246127E-3
10/19/2017  17:43:32.693206	1.904503E-1	4.465305E-3	5.951500E-4	1.675244E-4	3.609552E-3	1.428224E-2	9.335762E-4	3.773542E-3
10/19/2017  17:43:32.694206	2.477006E-1	8.696175E-3	1.623341E-3	1.852217E-2	4.099273E-3	6.738764E-3	8.627277E-4	5.672937E-3
10/19/2017  17:43:32.695206	1.573115E-1	7.497934E-3	3.474038E-3	5.723048E-3	8.246070E-3	1.060986E-3	3.889096E-3	1.621856E-2
10/19/2017  17:43:32.696206	1.158484E-3	2.983734E-3	9.079569E-3	1.216384E-2	7.127405E-3	8.456417E-3	6.186664E-3	5.248557E-3
10/19/2017  17:43:32.697206	2.201630E-1	4.810833E-3	5.563817E-3	8.314743E-3	1.291129E-3	2.363915E-3	1.733158E-3	9.346647E-3
10/19/2017  17:43:32.698206	3.870606E-1	3.074288E-3	4.514457E-3	7.247566E-3	1.307712E-2	2.841365E-3	1.401576E-3	3.337665E-3
10/19/2017  17:43:32.699206	2.394876E-1	5.043441E-3	5.753933E-3	1.604995E-3	7.308768E-4	6.831628E-3	1.098660E-3	2.883400E-3
10/19/2017  17:43:32.700206	1.523678E-1	3.776482E-4	2.680391E-3	1.488397E-3	1.479071E-2	6.143522E-3	1.019277E-2	2.459529E-3
10/19/2017  17:43:32.701206	2.607203E-1	2.872817E-4	9.334175E-3	3.716148E-3	8.698139E-3	3.024282E-3	1.377313E-3	2.784198E-4
10/19/2017  17:43:32.702206	7.462070E-1	9.165500E-3	8.728786E-3	3.213459E-3	2.686723E-3	4.342053E-3	3.789972E-3	4.426725E-3
10/19/2017  17:43:32.703206	6.639194E-1	4.020466E-3	2.854123E-3	1.132815E-2	2.447639E-3	3.503054E-3	1.112010E-3	1.327536E-3
10/19/2017  17:43:32.704206	3.444748E-1	1.238510E-3	9.195913E-3	2.421491E-3	2.621729E-3	8.977531E-3	3.506128E-3	3.670750E-3
10/19/2017  17:43:32.705206	1.327814E+0	5.681189E-3	4.145001E-3	1.924008E-2	2.192859E-3	3.058670E-3	6.684862E-3	7.874580E-3
10/19/2017  17:43:32.706206	3.032723E-1	4.686127E-3	1.542170E-2	2.489106E-3	5.246630E-3	3.444130E-4	8.232825E-3	2.711512E-3
10/19/2017  17:43:32.707206	1.335458E-1	4.059077E-3	5.678500E-3	6.833220E-3	7.296652E-3	7.412479E-3	9.289074E-3	2.283694E-3
10/19/2017  17:43:32.708206	4.557951E-1	1.292190E-2	7.101702E-3	5.976636E-3	3.292027E-3	1.600170E-3	4.074330E-3	4.562200E-4
10/19/2017  17:43:32.709206	2.949622E-1	7.986634E-3	1.053817E-2	2.695805E-3	9.889723E-3	1.331685E-3	6.002095E-3	8.935553E-3
10/19/2017  17:43:32.710206	2.458153E-1	6.892189E-3	4.276238E-3	9.510493E-3	1.047447E-2	1.045664E-2	4.143216E-3	2.725076E-3
10/19/2017  17:43:32.711206	4.394017E-1	1.286367E-2	5.782423E-3	3.695839E-3	4.136417E-3	7.716370E-3	1.359324E-3	7.277835E-3
10/19/2017  17:43:32.712206	1.330919E-1	1.341094E-3	6.852766E-3	1.564834E-3	1.296212E-3	1.133333E-2	8.360233E-3	7.169731E-4
10/19/2017  17:43:32.713206	1.027840E+0	1.549445E-2	1.074419E-3	3.669571E-3	3.545007E-3	6.825553E-3	1.456011E-4	4.523679E-4
10/19/2017  17:43:32.714206	8.685990E-1	5.554511E-3	8.415589E-4	6.312074E-3	7.138705E-4	5.742880E-3	4.483595E-3	4.474736E-3
								
10/19/2017  17:43:32.715206	5.165476E-1	1.162560E-2	6.273614E-4	6.274576E-4	8.742863E-3	5.944663E-5	1.015800E-3	7.642630E-4
10/19/2017  17:43:32.716206	6.999873E-1	6.810190E-3	4.310301E-4	6.556431E-3	4.485446E-3	2.428970E-3	8.015221E-3	9.878796E-3
10/19/2017  17:43:32.717206	8.084646E-1	8.320999E-3	6.781921E-3	1.023125E-2	3.131704E-3	7.198952E-3	7.226682E-3	1.074810E-3
10/19/2017  17:43:32.718206	2.020372E-1	4.553079E-3	8.134673E-3	1.257422E-2	4.853649E-3	8.164731E-3	6.015739E-3	1.111130E-2
10/19/2017  17:43:32.719206	1.599882E-1	3.698098E-3	7.229281E-3	5.971015E-3	3.148606E-3	7.049089E-3	1.148771E-2	4.450770E-3
10/19/2017  17:43:32.720206	1.390852E-2	6.455438E-3	8.452767E-3	1.378467E-2	5.121014E-4	1.010339E-3	5.117964E-3	1.186180E-3
10/19/2017  17:43:32.721206	1.192306E-1	9.393576E-4	9.376423E-3	7.141255E-3	6.422285E-3	8.028110E-4	3.533639E-4	1.332848E-2
10/19/2017  17:43:32.722206	1.412356E-1	3.746919E-3	3.740172E-3	1.073510E-2	1.127170E-2	6.417754E-3	1.140124E-2	9.085088E-3
10/19/2017  17:43:32.723206	3.388664E-1	6.390010E-3	7.786027E-3	9.809273E-3	9.711106E-3	6.279952E-3	4.829172E-3	2.040296E-2
10/19/2017  17:43:32.724206	1.173455E+0	3.202174E-3	5.297298E-3	1.332124E-3	1.128068E-3	1.228714E-2	7.847781E-3	4.045644E-3
10/19/2017  17:43:32.725206	1.853119E+0	1.125564E-2	2.274664E-3	1.056236E-2	3.780855E-3	6.210847E-3	2.199680E-4	8.349018E-3
10/19/2017  17:43:32.726206	1.276180E-1	4.741790E-3	2.656454E-3	4.099059E-3	5.548479E-3	3.092980E-3	2.316898E-3	1.877894E-4
10/19/2017  17:43:32.727206	1.313828E+0	1.826572E-2	7.266502E-3	3.794941E-3	4.625659E-3	8.957192E-3	2.342040E-4	4.391082E-3
10/19/2017  17:43:32.728206	1.149572E+0	9.472091E-4	3.879176E-3	1.079232E-3	7.967664E-3	6.716463E-3	9.325735E-3	5.845037E-3
10/19/2017  17:43:32.729206	3.195722E-1	7.869363E-3	1.310838E-2	3.571207E-3	2.578369E-3	1.291321E-2	8.437912E-3	5.091127E-3
10/19/2017  17:43:32.730206	4.824066E-1	7.443001E-3	6.254029E-3	6.611884E-3	4.442545E-3	7.762015E-3	4.659972E-3	4.982286E-3
10/19/2017  17:43:32.731206	6.581637E-1	1.596041E-3	1.371860E-2	1.112413E-3	3.434712E-3	1.114555E-2	1.385191E-3	2.938556E-3
10/19/2017  17:43:32.732206	3.540447E-2	1.510600E-2	2.582800E-5	1.059269E-2	3.038170E-3	1.190893E-2	9.184232E-4	7.283662E-3
10/19/2017  17:43:32.733206	4.940531E-1	3.715257E-3	6.899205E-3	3.072589E-3	4.375962E-3	1.961587E-2	2.839209E-3	8.360419E-4
10/19/2017  17:43:32.734206	1.110437E-1	8.476601E-3	8.418785E-3	1.464674E-2	3.488250E-3	6.896591E-3	2.075741E-3	6.868635E-4
10/19/2017  17:43:32.735206	9.005366E-3	4.721038E-3	2.562901E-3	8.455375E-4	7.303266E-4	1.190929E-3	3.300264E-3	5.527104E-4
10/19/2017  17:43:32.736206	8.027167E-1	1.352384E-2	6.944201E-3	1.321419E-2	6.310010E-3	1.023219E-3	5.496124E-3	9.806212E-3
10/19/2017  17:43:32.737206	1.585340E-1	2.079364E-3	1.198522E-3	5.518161E-3	1.896637E-3	8.693689E-4	2.789858E-4	3.473783E-3
10/19/2017  17:43:32.738206	2.325311E-1	1.711170E-3	5.685009E-3	2.093586E-3	1.824287E-2	7.286769E-4	5.232042E-3	1.132273E-2
10/19/2017  17:43:32.739206	3.763273E-1	3.314770E-3	2.304949E-3	8.513918E-3	8.040728E-3	6.429876E-3	2.329901E-3	7.338130E-3
10/19/2017  17:43:32.740206	1.813126E-1	1.829577E-3	9.060873E-3	9.612000E-3	2.084676E-2	1.638253E-3	1.678606E-3	7.852630E-3
10/19/2017  17:43:32.741206	1.752289E-1	6.167088E-3	6.418716E-3	5.598237E-3	8.487781E-3	6.124210E-3	8.277861E-3	4.437637E-4
10/19/2017  17:43:32.742206	6.323647E-1	8.983019E-3	1.627467E-3	6.694273E-3	5.101129E-3	6.548169E-3	2.580315E-3	2.792158E-3
10/19/2017  17:43:32.743206	3.419771E-1	1.699083E-3	1.547067E-2	2.062041E-2	2.523615E-3	3.157897E-3	4.620580E-3	6.313855E-5
10/19/2017  17:43:32.744206	8.252959E-1	3.707462E-3	1.049094E-2	6.034111E-3	9.838958E-3	4.449510E-3	5.732657E-3	9.462316E-3
10/19/2017  17:43:32.745206	1.057138E+0	8.700966E-3	6.604764E-3	2.048201E-2	3.772153E-3	1.479910E-3	5.085757E-3	3.255966E-3
10/19/2017  17:43:32.746206	1.405420E-1	1.962365E-3	1.318746E-2	1.842840E-3	1.419023E-3	1.055863E-3	2.548038E-3	2.059119E-3
10/19/2017  17:43:32.747206	3.491878E-1	3.953007E-3	6.624314E-4	2.019795E-3	1.105455E-3	5.535496E-3	4.304216E-3	1.865700E-3
								
10/19/2017  17:43:32.748206	2.173502E-1	8.472171E-3	1.006726E-2	4.506790E-3	3.170727E-3	4.797250E-3	3.635912E-3	5.343908E-3
10/19/2017  17:43:32.749206	5.249510E-3	1.679544E-4	7.865493E-3	1.885749E-3	2.529696E-3	5.502885E-4	5.650811E-3	2.674171E-3
10/19/2017  17:43:32.750206	4.588516E-1	2.192499E-3	5.151556E-3	4.341932E-3	6.645201E-3	1.952878E-3	2.610052E-3	7.111525E-3
10/19/2017  17:43:32.751206	6.380265E-1	9.893897E-3	4.412653E-3	6.383775E-3	1.344440E-2	7.661195E-3	7.026828E-3	5.607698E-3
10/19/2017  17:43:32.752206	5.213373E-1	5.967024E-3	3.303495E-3	1.335285E-3	4.901604E-3	2.274924E-2	3.368141E-3	7.992823E-5
10/19/2017  17:43:32.753206	5.314250E-1	1.384731E-2	1.911830E-3	1.089990E-2	1.611251E-3	9.270366E-3	4.248081E-3	4.914294E-3
10/19/2017  17:43:32.754206	4.663920E-1	2.371603E-3	7.207495E-4	4.734354E-3	8.255223E-3	1.525347E-2	5.970717E-3	5.097039E-3
10/19/2017  17:43:32.755206	2.097255E-1	5.054632E-3	1.742437E-3	7.592569E-3	4.785886E-3	1.405252E-3	2.017227E-3	5.394725E-4
10/19/2017  17:43:32.756206	6.575118E-1	2.764946E-3	8.795735E-4	6.232236E-3	4.133239E-3	9.822825E-4	2.934743E-3	1.001205E-2
10/19/2017  17:43:32.757206	1.425630E+0	1.639499E-2	6.283014E-3	9.074833E-3	3.519653E-3	4.041458E-3	9.435095E-3	8.147782E-4
10/19/2017  17:43:32.758206	3.830734E-1	7.399293E-3	4.132573E-3	6.188345E-3	1.773697E-3	3.573632E-3	7.674184E-4	5.301038E-3
10/19/2017  17:43:32.759206	6.966083E-1	2.955365E-3	8.234428E-3	4.391168E-3	2.194464E-2	7.823315E-3	4.151400E-4	1.205439E-2
10/19/2017  17:43:32.760206	9.630228E-1	1.987473E-5	2.454144E-3	6.280959E-3	9.883673E-3	4.302642E-3	9.520174E-5	1.484923E-3
10/19/2017  17:43:32.761206	1.034299E+0	7.240446E-3	2.281382E-4	1.574961E-3	1.543865E-3	1.084653E-3	1.938991E-4	8.136020E-3
10/19/2017  17:43:32.762206	1.470351E-1	7.747990E-4	4.845393E-3	1.157033E-3	7.895366E-3	1.383773E-3	5.138536E-3	4.480806E-3
10/19/2017  17:43:32.763206	2.152511E-1	5.217483E-3	5.366304E-3	1.283945E-2	1.238798E-2	5.800430E-3	2.426113E-3	5.711642E-3
10/19/2017  17:43:32.764206	1.627976E-1	5.145052E-3	2.445212E-3	1.320556E-2	5.962632E-3	9.277931E-3	5.254918E-3	7.264097E-3
10/19/2017  17:43:32.765206	1.879055E-1	4.508916E-3	2.008532E-3	3.956436E-3	1.911709E-3	1.471370E-3	7.037237E-3	7.911583E-3
10/19/2017  17:43:32.766206	1.758967E-1	7.684389E-4	7.339984E-4	1.099726E-2	8.256791E-4	1.197265E-3	6.131100E-3	4.009274E-4
10/19/2017  17:43:32.767206	3.336695E-1	2.889648E-3	7.744081E-3	7.152186E-3	1.559686E-3	6.084874E-3	6.087525E-4	4.228990E-4
10/19/2017  17:43:32.768206	1.670013E-1	2.381463E-3	5.159888E-3	1.025666E-2	1.215383E-3	1.869144E-3	6.058443E-4	4.247162E-3
10/19/2017  17:43:32.769206	2.280713E-1	2.543080E-3	4.323091E-3	1.434135E-3	1.553532E-2	1.563223E-3	6.013834E-4	1.220902E-3
10/19/2017  17:43:32.770206	3.574219E-1	5.031945E-3	5.821386E-3	8.434661E-3	1.365397E-3	8.092456E-3	5.954069E-4	1.522481E-2
10/19/2017  17:43:32.771206	3.298536E-1	6.715566E-3	2.636356E-3	3.053909E-4	8.335372E-3	1.193509E-2	7.615302E-3	5.887908E-3
10/19/2017  17:43:32.772206	5.813985E-1	3.375599E-3	9.961776E-5	2.799865E-3	4.670093E-3	3.001180E-3	5.746175E-4	2.982830E-4
10/19/2017  17:43:32.773206	1.274011E-1	2.841220E-3	7.677177E-5	2.064185E-4	6.246130E-3	1.634103E-2	5.174093E-3	2.104923E-3
10/19/2017  17:43:32.774206	9.405577E-2	2.337719E-3	2.402329E-3	1.136312E-2	8.946239E-3	2.544517E-4	5.044247E-3	5.695250E-4
10/19/2017  17:43:32.775206	3.664813E-1	2.666131E-3	2.687233E-3	8.582535E-5	1.753767E-3	7.305047E-3	3.999648E-4	8.883785E-3
10/19/2017  17:43:32.776206	9.634556E-2	1.187151E-2	2.406403E-3	7.476749E-3	3.757648E-3	8.639305E-4	3.288661E-4	3.875626E-4
10/19/2017  17:43:32.777206	6.196704E-2	6.282716E-4	5.023238E-3	1.949781E-3	3.053486E-3	3.100441E-3	2.605730E-3	2.146704E-3
10/19/2017  17:43:32.778206	7.680004E-3	2.794199E-3	2.803823E-3	1.212723E-2	1.180254E-2	9.099795E-3	4.866450E-3	1.130695E-2
10/19/2017  17:43:32.779206	1.109570E-2	4.779225E-3	4.654306E-3	1.362310E-2	2.724046E-4	5.887193E-4	7.591660E-3	1.947474E-4
10/19/2017  17:43:32.780206	3.112899E-2	4.119176E-3	1.543782E-3	2.493015E-3	9.535005E-3	6.646730E-3	1.669366E-3	7.165628E-3
								
10/19/2017  17:43:32.781206	1.962320E-1	1.164734E-3	1.119868E-3	4.760632E-3	1.313813E-3	3.695990E-3	3.381820E-3	8.301682E-3
10/19/2017  17:43:32.782206	3.240077E-1	5.671707E-3	6.006796E-3	1.950493E-3	9.659070E-4	7.056832E-4	6.424070E-3	6.811054E-3
10/19/2017  17:43:32.783206	2.367604E-1	2.392088E-3	9.128465E-3	1.900400E-3	4.173549E-3	8.875798E-3	2.947231E-3	1.329838E-2
