Parameters: 	Upper Cutoff: : 300	Lower Cutoff: : 30	Sample Rate (HZ)1000	Frames Per Second: 30	Display Window Size (S)400	MVC Window Size (s): 400	Seconds To Acquire MVC: 3	Display Channel: 0
waveform	[0]	[1]	[2]	[3]	[4]	[5]	[6]	[7]
t0	10/19/2017  17:45:55.994649	10/19/2017  17:45:55.994649	10/19/2017  17:45:55.994649	10/19/2017  17:45:55.994649	10/19/2017  17:45:55.994649	10/19/2017  17:45:55.994649	10/19/2017  17:45:55.994649	10/19/2017  17:45:55.994649
delta t	0.001000	0.001000	0.001000	0.001000	0.001000	0.001000	0.001000	0.001000

time	Y[0]	Y[1]	Y[2]	Y[3]	Y[4]	Y[5]	Y[6]	Y[7]
10/19/2017  17:45:55.981013	1.807303E-1	2.244205E-3	7.980371E-3	7.913376E-3	3.995452E-3	2.185885E-3	3.665079E-3	8.339880E-3
10/19/2017  17:45:55.982013	1.581918E-2	2.399440E-3	2.099676E-4	9.528853E-4	9.251356E-3	5.416231E-3	2.063915E-3	3.515710E-4
10/19/2017  17:45:55.983013	3.036628E-1	3.843038E-3	5.345222E-3	2.475774E-3	2.601676E-3	6.319262E-3	3.202057E-3	6.682004E-3
10/19/2017  17:45:55.984013	5.822294E-1	1.124652E-3	1.148870E-3	4.901459E-3	5.608556E-3	2.188336E-3	1.240148E-4	3.394816E-3
10/19/2017  17:45:55.985013	5.905750E-1	5.485409E-3	9.020390E-3	1.482457E-3	3.773232E-3	3.197886E-3	5.677473E-3	4.387359E-3
10/19/2017  17:45:55.986013	3.807188E-1	5.494727E-3	5.997438E-3	1.108959E-3	3.978832E-3	1.630227E-3	6.544179E-4	4.941112E-3
10/19/2017  17:45:55.987013	5.638151E-2	3.387696E-3	2.067035E-3	7.490339E-3	1.018781E-3	5.964705E-3	5.277545E-4	6.508089E-4
10/19/2017  17:45:55.988013	3.499358E-1	7.850410E-3	3.491259E-3	7.749502E-3	2.463661E-4	7.167146E-3	5.341111E-3	6.754864E-5
10/19/2017  17:45:55.989013	3.884725E-1	2.687683E-3	9.332459E-4	1.064812E-3	6.793085E-5	4.616245E-3	1.987810E-3	2.550538E-3
10/19/2017  17:45:55.990013	2.257937E-1	1.683990E-3	9.762999E-4	5.539449E-3	7.342386E-4	3.514086E-3	3.820313E-3	3.857806E-3
10/19/2017  17:45:55.991013	8.015286E-1	3.311383E-3	4.337040E-3	6.588674E-4	3.193153E-3	2.647938E-4	4.402322E-4	4.469201E-3
10/19/2017  17:45:55.992013	6.421937E-1	1.959331E-3	5.792887E-3	1.501751E-3	7.154449E-3	2.109570E-3	2.266473E-4	3.293428E-3
10/19/2017  17:45:55.993013	7.704602E-2	3.223216E-3	3.151057E-3	3.809237E-3	4.290497E-3	6.393779E-4	1.633063E-3	1.073554E-3
10/19/2017  17:45:55.994013	7.233870E-1	1.057294E-3	1.780485E-3	3.143164E-3	1.722403E-3	1.279442E-3	5.879796E-3	4.404759E-3
10/19/2017  17:45:55.995013	8.033372E-1	1.037610E-3	4.929702E-4	4.732601E-3	4.542349E-3	6.163302E-3	4.884931E-3	7.417406E-4
10/19/2017  17:45:55.996013	5.561375E-1	2.845330E-3	1.148425E-3	8.454168E-3	4.266097E-3	1.025152E-3	5.980678E-3	1.288763E-3
10/19/2017  17:45:55.997013	4.361946E-1	2.082666E-3	1.492098E-3	4.201498E-3	4.031513E-3	2.191157E-3	3.835328E-3	1.482314E-3
10/19/2017  17:45:55.998013	3.097837E-1	2.214879E-3	2.775470E-3	4.587026E-3	5.876719E-3	6.694977E-3	2.045254E-3	4.597533E-3
10/19/2017  17:45:55.999013	1.707816E-1	2.054101E-3	4.729096E-3	6.340838E-3	4.802142E-3	1.000605E-2	1.741611E-3	2.264683E-3
10/19/2017  17:45:56.000013	1.912825E-1	5.517903E-4	4.420127E-3	1.046108E-3	4.430115E-4	2.526816E-3	4.415374E-3	4.065268E-4
10/19/2017  17:45:56.001013	8.034335E-2	1.890596E-3	8.595939E-4	2.588574E-3	4.311663E-4	3.610344E-3	3.769690E-3	2.849860E-3
10/19/2017  17:45:56.002013	2.085841E-1	1.931909E-4	5.273214E-3	3.380005E-3	2.898245E-3	5.542397E-3	4.278723E-4	1.999440E-3
10/19/2017  17:45:56.003013	2.194613E-1	3.827688E-3	3.120170E-3	6.437795E-3	7.061798E-4	1.101865E-3	6.032974E-3	5.202209E-3
10/19/2017  17:45:56.004013	7.867390E-2	5.649032E-3	7.064218E-3	3.099133E-3	7.852337E-4	6.412091E-3	2.284028E-3	1.821790E-3
10/19/2017  17:45:56.005013	4.570081E-1	5.126788E-3	2.896855E-3	1.932904E-3	8.302630E-4	6.071680E-3	3.335733E-3	1.401904E-3
10/19/2017  17:45:56.006013	1.101097E+0	3.511680E-3	8.135815E-3	1.906468E-4	4.917150E-3	3.018205E-3	2.280049E-3	7.230931E-3
10/19/2017  17:45:56.007013	1.167590E+0	2.155446E-3	3.768230E-3	2.693980E-3	1.827357E-3	2.387811E-5	8.223424E-4	5.321523E-3
10/19/2017  17:45:56.008013	6.871547E-1	8.366844E-3	1.559932E-4	5.940234E-4	2.838080E-4	5.626199E-3	2.369067E-3	3.086400E-3
10/19/2017  17:45:56.009013	2.693214E-1	5.133547E-3	4.432174E-3	1.002805E-3	4.300709E-3	3.375503E-3	5.282251E-3	2.854036E-3
10/19/2017  17:45:56.010013	1.388061E+0	5.571827E-4	4.586810E-4	4.429280E-4	1.321245E-3	1.197837E-3	7.681002E-4	1.246803E-3
10/19/2017  17:45:56.011013	1.208716E+0	1.883061E-3	2.035495E-3	2.048166E-3	1.033584E-2	3.219460E-3	3.044662E-3	1.598804E-3
10/19/2017  17:45:56.012013	4.306254E-2	3.545240E-3	2.190365E-3	3.600357E-3	2.885830E-3	6.330251E-3	4.641241E-4	3.225319E-3
10/19/2017  17:45:56.013013	5.064515E-1	6.206059E-5	8.019044E-4	3.463681E-3	9.637422E-3	5.091090E-3	2.934054E-3	4.567454E-3
								
10/19/2017  17:45:56.014013	4.900617E-1	6.907512E-4	3.710483E-3	8.338850E-3	1.018211E-2	4.890149E-3	3.225425E-3	8.905475E-3
10/19/2017  17:45:56.015013	9.236367E-1	4.003353E-4	5.255555E-4	8.251050E-3	3.431489E-3	2.786413E-3	8.596804E-4	4.170949E-3
10/19/2017  17:45:56.016013	4.573873E-1	1.634859E-3	5.011571E-4	1.064699E-3	2.030289E-3	4.222880E-4	2.643690E-3	1.168719E-3
10/19/2017  17:45:56.017013	1.113969E+0	2.373434E-3	2.440289E-3	4.208146E-3	2.993098E-3	1.947828E-4	2.900145E-4	5.347406E-3
10/19/2017  17:45:56.018013	9.545059E-1	2.446440E-3	1.095199E-3	5.803567E-3	5.721457E-4	2.325769E-3	2.970687E-3	4.768216E-3
10/19/2017  17:45:56.019013	9.134231E-1	6.070885E-3	7.170189E-3	2.300483E-3	4.110700E-3	2.165574E-3	4.032108E-3	7.616877E-4
10/19/2017  17:45:56.020013	7.554792E-1	1.564820E-3	4.595517E-3	1.050977E-2	1.851299E-3	4.678479E-4	3.077900E-3	5.027133E-4
10/19/2017  17:45:56.021013	1.253877E+0	8.752579E-4	4.104986E-3	1.149749E-2	5.069316E-3	3.774747E-3	3.831258E-3	5.596656E-3
10/19/2017  17:45:56.022013	1.544802E+0	1.391621E-3	5.094953E-4	5.084602E-3	5.360307E-3	4.568326E-3	1.196571E-3	9.565040E-4
10/19/2017  17:45:56.023013	3.008566E-2	2.078038E-3	4.389326E-3	2.760727E-3	2.111395E-3	2.932077E-4	1.297096E-3	3.644049E-3
10/19/2017  17:45:56.024013	9.527409E-1	3.157158E-3	1.807509E-3	4.227949E-3	3.207544E-3	1.934710E-3	2.714386E-3	1.264008E-3
10/19/2017  17:45:56.025013	9.171788E-1	2.467149E-3	1.966891E-3	1.597990E-3	2.680529E-3	6.902428E-3	1.767912E-3	1.611537E-3
10/19/2017  17:45:56.026013	5.822625E-1	2.083448E-4	3.531653E-3	8.498026E-3	5.352070E-3	7.005899E-3	4.771052E-4	1.443067E-3
10/19/2017  17:45:56.027013	9.856431E-2	2.996936E-3	4.391466E-3	5.946756E-3	2.655430E-3	1.954618E-3	6.255610E-4	1.134014E-3
10/19/2017  17:45:56.028013	9.664784E-1	3.757106E-3	1.543164E-3	7.440795E-3	2.417687E-3	6.569379E-3	4.920612E-3	5.076766E-4
10/19/2017  17:45:56.029013	6.616525E-1	3.591351E-3	2.127894E-3	1.209137E-2	3.481627E-3	8.022461E-3	4.382677E-3	2.128986E-3
10/19/2017  17:45:56.030013	5.578881E-1	9.496738E-3	4.629335E-3	1.612033E-3	2.298839E-4	1.095277E-3	5.664765E-4	5.523891E-3
10/19/2017  17:45:56.031013	2.972355E-1	8.859029E-3	5.570416E-3	2.091625E-3	2.662548E-3	1.612918E-3	1.250796E-3	8.422635E-3
10/19/2017  17:45:56.032013	1.093676E+0	4.633646E-3	5.543304E-3	5.392631E-3	3.441709E-3	4.039877E-3	1.323535E-3	2.610814E-3
10/19/2017  17:45:56.033013	9.330560E-1	1.191448E-3	2.605306E-3	7.711519E-3	2.816311E-3	1.815122E-3	7.940983E-5	3.607802E-3
10/19/2017  17:45:56.034013	3.211090E-1	2.719951E-3	2.796182E-3	2.120539E-3	1.163480E-3	2.256253E-3	8.177359E-4	9.471572E-3
10/19/2017  17:45:56.035013	5.562979E-1	1.808903E-3	6.398247E-3	5.230666E-3	1.991453E-3	1.509430E-3	2.945301E-3	6.502121E-3
10/19/2017  17:45:56.036013	1.418602E-1	2.651361E-3	6.279259E-3	6.295516E-3	3.058112E-3	2.238346E-4	2.187394E-3	1.531143E-3
10/19/2017  17:45:56.037013	7.758151E-2	3.944322E-3	2.628234E-3	1.986143E-3	1.685957E-3	2.237813E-3	1.163743E-3	3.335482E-3
10/19/2017  17:45:56.038013	1.106996E-1	9.480001E-3	2.378613E-3	4.227356E-3	8.380020E-3	5.009306E-3	3.968306E-3	7.214591E-3
10/19/2017  17:45:56.039013	1.757577E-1	6.260491E-3	4.054703E-3	4.418010E-3	4.025401E-3	1.982821E-4	5.621406E-3	3.948933E-3
10/19/2017  17:45:56.040013	5.047102E-1	2.447524E-3	2.908437E-3	6.369977E-3	5.958777E-3	9.526312E-5	3.419400E-3	6.539946E-3
10/19/2017  17:45:56.041013	7.787485E-1	5.101511E-3	2.070894E-3	2.546353E-5	1.313964E-3	2.470018E-3	3.312114E-3	5.295312E-3
10/19/2017  17:45:56.042013	6.676896E-1	2.195529E-3	2.035569E-3	1.758382E-3	1.005396E-2	5.325377E-3	4.597386E-3	5.017300E-3
10/19/2017  17:45:56.043013	2.178649E-1	7.305685E-3	1.909067E-3	1.940167E-4	6.321263E-3	6.698884E-3	2.247734E-4	6.730867E-3
10/19/2017  17:45:56.044013	3.783711E-1	7.634953E-4	8.367765E-5	1.141088E-3	2.802824E-3	5.246999E-3	6.789818E-3	5.275725E-3
10/19/2017  17:45:56.045013	6.084985E-1	8.432955E-3	1.018338E-3	7.642052E-4	6.218926E-4	3.102724E-3	6.740726E-4	4.772261E-3
10/19/2017  17:45:56.046013	5.157507E-2	2.249788E-5	5.586645E-4	2.704340E-3	5.087276E-3	1.150588E-2	4.403022E-3	4.631665E-3
								
10/19/2017  17:45:56.047013	9.182149E-1	6.953508E-3	2.699785E-5	3.985628E-3	1.329144E-3	7.276378E-3	4.475785E-3	1.356326E-3
10/19/2017  17:45:56.048013	6.155893E-1	1.107111E-3	2.098738E-3	3.471960E-3	6.347525E-3	4.761358E-3	5.582639E-3	6.229346E-3
10/19/2017  17:45:56.049013	3.548564E-1	5.315778E-3	1.188634E-3	4.722523E-3	4.913502E-3	3.887637E-4	2.565336E-3	9.009531E-3
10/19/2017  17:45:56.050013	5.038898E-1	1.122505E-3	1.197696E-3	1.623990E-3	4.024710E-3	2.427933E-3	1.628465E-3	1.082269E-3
10/19/2017  17:45:56.051013	2.853934E-1	1.860393E-3	5.248231E-4	7.064513E-3	2.429896E-4	5.706592E-3	2.983253E-3	9.480973E-3
10/19/2017  17:45:56.052013	4.908494E-1	2.317418E-3	1.603586E-4	6.576628E-3	7.522080E-3	4.728706E-3	1.726290E-4	6.368518E-4
10/19/2017  17:45:56.053013	7.751241E-1	9.855005E-4	1.330449E-3	1.648726E-4	6.406458E-3	4.208585E-3	8.683026E-4	1.293503E-2
10/19/2017  17:45:56.054013	1.067144E+0	1.949128E-4	9.069831E-4	3.992513E-3	4.992640E-4	3.472713E-3	2.567226E-3	2.606178E-3
10/19/2017  17:45:56.055013	1.129163E+0	6.277758E-4	1.759261E-3	8.569708E-3	2.036297E-4	2.781136E-3	1.074011E-3	1.012259E-2
10/19/2017  17:45:56.056013	3.812542E-1	6.203317E-3	1.516969E-3	3.231659E-4	1.739847E-3	1.185245E-3	1.737642E-3	1.088163E-5
10/19/2017  17:45:56.057013	6.185671E-1	4.752812E-3	6.920897E-3	5.706928E-3	8.361721E-3	7.086437E-3	5.997510E-3	5.728492E-3
10/19/2017  17:45:56.058013	6.935439E-1	6.471474E-3	3.772847E-3	5.064526E-5	7.035359E-3	3.227693E-3	8.628396E-4	5.472317E-3
10/19/2017  17:45:56.059013	6.948742E-2	9.775915E-3	1.013245E-2	3.346792E-3	1.037317E-3	1.364295E-2	8.265349E-3	5.148513E-3
10/19/2017  17:45:56.060013	1.432162E-1	7.589982E-5	6.297680E-3	5.770883E-4	4.170732E-3	5.108226E-3	6.296908E-3	3.985441E-3
10/19/2017  17:45:56.061013	1.122668E-2	4.368630E-3	9.333740E-3	2.504356E-3	2.803810E-3	3.059941E-3	7.254091E-4	8.314660E-4
10/19/2017  17:45:56.062013	2.698211E-1	5.097759E-4	5.120010E-3	1.449810E-3	1.099400E-4	3.222067E-4	2.780376E-3	4.875961E-3
10/19/2017  17:45:56.063013	9.822076E-1	3.705899E-3	4.435873E-3	2.694340E-3	6.208203E-3	1.225868E-3	2.889366E-3	2.831443E-3
10/19/2017  17:45:56.064013	1.273443E+0	7.021284E-3	2.053065E-3	5.754347E-3	9.724847E-3	6.590218E-4	1.526696E-3	8.888899E-4
10/19/2017  17:45:56.065013	1.507080E-1	2.591701E-3	3.887247E-3	3.525732E-3	2.926821E-3	1.915788E-3	4.328657E-4	6.536690E-3
10/19/2017  17:45:56.066013	8.895612E-1	1.409103E-2	4.916279E-3	2.052099E-3	4.906503E-3	3.559282E-3	9.940447E-4	8.932745E-4
10/19/2017  17:45:56.067013	4.064444E-1	1.249317E-2	2.324819E-3	1.722147E-3	1.637270E-3	6.895338E-3	5.179290E-3	6.932107E-3
10/19/2017  17:45:56.068013	2.677737E-1	7.625756E-3	3.733186E-3	1.159962E-4	1.825996E-3	7.988232E-4	1.944710E-3	2.322173E-4
10/19/2017  17:45:56.069013	3.759948E-2	4.544867E-3	3.521001E-3	1.888927E-4	6.220226E-3	2.440607E-3	4.742295E-3	8.853913E-4
10/19/2017  17:45:56.070013	5.757550E-2	1.137431E-2	4.674279E-3	3.802937E-3	1.081309E-2	4.205066E-3	2.997540E-3	1.480375E-3
10/19/2017  17:45:56.071013	3.954317E-1	4.056347E-3	6.969162E-3	4.114969E-3	2.091262E-3	1.137647E-3	7.373655E-3	2.735441E-3
10/19/2017  17:45:56.072013	4.460718E-1	6.246484E-3	5.104618E-3	1.583375E-3	1.654651E-3	3.564396E-3	5.433810E-3	5.185605E-4
10/19/2017  17:45:56.073013	6.013067E-4	1.880404E-3	6.988888E-3	6.871951E-3	2.635136E-3	1.317864E-3	9.975664E-3	3.788174E-3
10/19/2017  17:45:56.074013	1.366619E-1	3.624274E-3	5.960491E-3	1.051147E-3	2.678395E-4	1.595774E-3	1.814281E-3	4.751058E-3
10/19/2017  17:45:56.075013	1.168368E-2	5.652875E-3	2.173151E-3	1.616272E-2	1.653751E-3	1.604598E-3	4.830479E-3	7.906363E-3
10/19/2017  17:45:56.076013	1.915742E-1	2.385544E-3	4.184062E-3	1.048662E-2	2.614172E-3	4.159661E-3	1.862267E-3	3.081534E-3
10/19/2017  17:45:56.077013	3.767297E-1	1.612627E-3	1.172618E-3	2.357458E-3	2.207794E-3	7.624146E-3	2.164978E-4	4.420409E-3
10/19/2017  17:45:56.078013	5.310996E-2	8.409468E-3	4.433034E-3	3.662961E-3	6.692886E-3	2.535674E-3	4.652544E-3	3.105553E-3
10/19/2017  17:45:56.079013	6.988178E-1	8.090919E-3	6.258454E-5	3.117321E-3	9.616803E-4	4.183559E-4	4.104718E-3	6.868534E-4
								
10/19/2017  17:45:56.080013	1.215170E+0	4.605788E-3	4.664152E-3	4.684388E-3	5.039169E-3	8.668548E-4	7.989455E-4	2.532805E-3
10/19/2017  17:45:56.081013	3.674684E-1	4.628928E-3	5.497531E-3	2.418728E-3	3.489027E-4	8.440437E-3	5.044278E-3	1.305120E-3
10/19/2017  17:45:56.082013	1.377626E+0	3.434268E-3	6.157480E-3	4.349814E-3	2.317251E-3	1.146136E-2	6.117784E-3	6.828146E-3
10/19/2017  17:45:56.083013	1.752412E+0	5.605553E-3	5.118724E-3	6.391846E-3	1.004756E-3	1.903996E-3	1.052070E-3	5.949355E-3
10/19/2017  17:45:56.084013	7.949140E-1	1.087774E-3	4.405025E-3	2.463525E-3	1.029064E-3	6.315030E-3	3.333762E-3	7.285486E-3
10/19/2017  17:45:56.085013	5.103106E-1	6.560668E-3	2.164326E-3	5.993660E-3	3.865348E-3	2.492872E-3	2.204255E-4	7.051923E-3
10/19/2017  17:45:56.086013	5.883643E-1	5.359452E-3	6.488552E-4	2.158577E-3	4.664446E-3	4.043727E-3	8.122301E-4	3.867299E-3
10/19/2017  17:45:56.087013	1.076747E-1	2.981245E-3	1.006420E-3	4.660329E-3	2.895056E-3	3.512508E-3	3.728775E-4	1.715146E-3
10/19/2017  17:45:56.088013	7.786704E-1	5.667311E-4	3.548162E-3	4.808641E-3	5.983083E-3	2.543071E-3	4.088413E-3	5.650124E-3
10/19/2017  17:45:56.089013	7.562202E-1	6.319502E-3	3.224489E-3	2.007643E-3	1.799560E-3	5.220737E-3	1.799031E-3	6.882299E-3
10/19/2017  17:45:56.090013	6.206436E-1	1.601012E-3	7.089381E-3	5.258756E-3	6.346915E-3	4.270385E-4	2.785800E-3	3.793652E-3
10/19/2017  17:45:56.091013	6.232210E-1	3.042446E-3	5.708329E-3	3.618328E-3	2.587939E-3	4.801868E-3	4.299765E-3	6.076326E-3
10/19/2017  17:45:56.092013	4.122012E-1	2.825762E-3	4.061178E-3	6.408362E-3	7.883496E-4	5.128558E-3	5.893932E-3	1.128482E-2
10/19/2017  17:45:56.093013	9.154384E-2	4.750001E-3	1.603391E-3	4.552918E-3	2.374055E-3	8.012096E-4	5.429953E-3	1.638551E-4
10/19/2017  17:45:56.094013	4.144283E-1	2.571596E-3	6.350589E-4	1.167357E-2	8.080449E-4	3.648017E-3	1.438134E-3	7.696316E-3
10/19/2017  17:45:56.095013	2.855972E-1	3.396552E-3	7.708224E-3	1.039857E-2	3.789207E-3	2.812686E-3	8.280157E-3	1.812105E-3
10/19/2017  17:45:56.096013	2.054028E-1	2.996950E-3	5.060563E-3	1.133861E-2	3.315054E-3	1.659430E-3	6.729760E-3	6.904221E-3
10/19/2017  17:45:56.097013	2.934174E-1	6.417187E-5	8.524008E-3	1.180147E-2	2.670065E-3	2.397914E-3	1.389989E-3	4.730432E-4
10/19/2017  17:45:56.098013	6.481654E-2	5.914666E-3	6.736268E-3	5.727869E-3	3.013617E-4	2.042653E-4	6.596810E-3	3.888085E-3
10/19/2017  17:45:56.099013	7.473504E-1	1.193190E-3	3.968539E-3	3.887185E-3	8.256584E-3	1.450108E-3	3.300648E-3	1.189089E-3
10/19/2017  17:45:56.100013	9.372878E-1	9.953174E-4	1.980978E-3	7.937550E-3	3.306860E-3	4.264744E-3	3.107911E-4	5.005699E-3
10/19/2017  17:45:56.101013	2.715944E-1	5.692356E-3	3.139974E-3	3.044518E-3	6.564840E-3	2.573161E-3	2.650979E-3	2.509976E-3
10/19/2017  17:45:56.102013	6.506484E-1	4.053643E-3	2.173139E-4	4.416985E-3	6.725787E-4	3.887620E-3	9.598903E-5	8.265486E-4
10/19/2017  17:45:56.103013	7.289644E-1	7.823304E-3	1.159068E-3	9.184169E-4	5.669670E-3	9.074957E-3	3.865360E-3	9.511669E-7
10/19/2017  17:45:56.104013	5.930366E-2	1.039218E-2	5.481474E-4	2.420810E-3	2.176732E-3	7.058315E-3	7.052438E-4	2.467970E-4
10/19/2017  17:45:56.105013	2.548908E-1	1.139104E-4	1.265929E-3	4.456369E-3	5.622813E-3	1.206223E-2	5.750295E-4	2.867811E-3
10/19/2017  17:45:56.106013	1.114075E-1	3.912191E-3	2.249002E-3	6.800556E-3	2.014590E-4	1.137938E-2	7.507659E-3	4.907194E-4
10/19/2017  17:45:56.107013	5.280523E-2	4.626661E-4	7.374285E-4	6.908382E-3	1.799761E-3	3.607816E-3	7.138200E-4	3.299283E-4
10/19/2017  17:45:56.108013	4.762560E-2	2.876377E-3	1.818703E-3	9.484527E-3	5.500180E-3	1.802841E-3	6.281838E-3	6.592684E-3
10/19/2017  17:45:56.109013	1.891207E-1	5.112113E-3	3.397257E-4	6.696494E-3	7.851842E-3	3.084064E-3	4.084527E-3	2.377906E-3
10/19/2017  17:45:56.110013	6.787181E-1	2.471318E-3	8.704881E-5	8.418524E-3	1.822843E-3	3.693712E-3	8.295874E-3	1.025521E-2
10/19/2017  17:45:56.111013	7.888382E-1	3.074742E-3	3.083891E-3	2.877119E-3	7.845773E-3	2.304421E-3	2.979703E-3	1.300490E-3
10/19/2017  17:45:56.112013	2.617446E-1	4.153495E-3	1.672463E-3	8.991999E-3	1.233395E-3	4.191091E-3	2.668622E-3	1.323562E-2
								
10/19/2017  17:45:56.113013	1.593511E+0	5.200205E-4	4.116664E-3	2.774066E-3	5.122710E-3	3.963587E-3	5.356035E-3	2.157380E-3
10/19/2017  17:45:56.114013	1.197912E+0	6.097553E-3	5.130557E-3	5.301665E-3	5.383238E-3	7.357624E-3	9.239932E-4	8.382340E-3
10/19/2017  17:45:56.115013	6.183426E-1	4.724246E-3	3.951363E-4	3.343499E-3	7.322535E-3	8.529386E-3	5.397925E-4	2.429819E-3
10/19/2017  17:45:56.116013	1.439326E+0	1.412848E-2	6.472869E-4	1.046162E-2	4.373624E-3	1.225054E-2	6.966563E-3	6.292161E-3
10/19/2017  17:45:56.117013	9.163530E-1	4.734812E-4	3.140264E-3	2.752476E-3	6.119551E-3	4.854298E-3	8.120309E-4	1.577007E-3
10/19/2017  17:45:56.118013	6.443096E-1	1.128902E-2	9.526339E-4	1.014125E-3	1.336878E-3	1.122014E-2	1.004734E-2	2.699323E-4
10/19/2017  17:45:56.119013	9.014365E-1	9.299357E-4	4.140742E-3	3.589200E-3	2.586957E-3	2.312000E-3	4.570190E-3	7.134496E-4
10/19/2017  17:45:56.120013	8.203146E-1	1.121487E-3	4.398233E-3	2.104739E-3	4.047300E-3	2.070987E-3	9.999379E-4	1.023232E-2
10/19/2017  17:45:56.121013	1.431589E-1	7.828550E-3	6.667619E-3	1.626674E-3	6.103811E-3	1.806218E-4	5.562732E-3	4.996742E-3
10/19/2017  17:45:56.122013	1.715561E+0	3.626308E-3	4.438889E-3	2.329479E-4	1.200901E-3	7.316883E-4	2.412521E-3	1.028267E-2
10/19/2017  17:45:56.123013	2.364132E+0	2.489432E-3	2.972675E-3	2.038473E-3	7.304743E-3	2.233599E-4	5.032079E-3	5.590901E-3
10/19/2017  17:45:56.124013	8.856365E-1	1.336311E-3	4.859151E-3	1.305686E-2	1.353714E-3	1.987748E-3	4.932978E-4	6.463292E-3
10/19/2017  17:45:56.125013	9.615208E-1	8.710193E-4	1.102188E-3	1.474377E-2	4.575916E-3	2.288669E-3	5.930155E-3	5.017102E-4
10/19/2017  17:45:56.126013	7.537591E-1	6.367652E-3	7.096717E-4	3.005904E-4	2.938951E-3	4.986399E-4	1.721595E-4	3.519982E-3
10/19/2017  17:45:56.127013	4.224610E-1	2.874526E-3	2.397377E-3	7.648372E-3	3.906932E-3	7.459468E-4	3.999270E-3	7.350757E-3
10/19/2017  17:45:56.128013	4.706114E-1	7.889245E-4	1.348878E-4	1.070725E-3	5.029927E-3	4.507308E-3	2.588486E-3	6.726999E-3
10/19/2017  17:45:56.129013	3.635466E-3	4.776981E-3	1.418019E-3	3.261517E-3	4.627650E-3	4.728633E-3	1.837678E-3	6.025468E-3
10/19/2017  17:45:56.130013	1.198315E-1	1.141434E-3	3.159878E-3	3.197462E-3	1.210210E-2	2.520482E-3	5.105295E-3	5.214690E-3
10/19/2017  17:45:56.131013	4.493561E-1	8.188264E-3	3.446686E-3	3.342120E-3	4.617688E-3	8.883578E-3	5.975123E-4	3.328853E-3
10/19/2017  17:45:56.132013	5.002162E-1	4.140344E-3	5.193460E-4	3.238211E-3	3.832235E-3	6.176810E-3	6.065735E-3	3.281207E-3
10/19/2017  17:45:56.133013	1.972555E-1	6.285055E-3	3.363748E-3	4.000610E-3	2.712268E-4	2.125114E-3	2.629985E-3	3.747652E-4
10/19/2017  17:45:56.134013	2.981071E-1	8.743900E-4	5.065547E-3	4.561759E-3	5.073396E-3	3.751959E-3	1.229726E-2	2.276225E-3
10/19/2017  17:45:56.135013	6.065083E-1	6.000199E-3	5.050741E-3	6.554262E-3	2.991868E-4	3.485652E-4	1.815981E-3	4.025957E-3
10/19/2017  17:45:56.136013	6.727015E-1	3.885412E-3	5.437668E-3	4.330422E-3	4.876512E-3	3.304948E-3	9.247399E-3	4.790154E-3
10/19/2017  17:45:56.137013	6.899187E-1	6.900793E-3	7.601043E-3	1.420875E-3	2.248917E-3	5.517060E-3	3.310562E-4	2.295927E-3
10/19/2017  17:45:56.138013	5.070484E-1	6.278316E-3	2.846581E-3	1.203010E-2	2.835270E-3	4.649136E-3	5.253428E-3	1.425109E-3
10/19/2017  17:45:56.139013	8.145247E-2	9.075523E-3	1.461572E-2	5.008193E-3	8.797914E-3	7.851678E-3	5.798446E-3	1.991526E-3
10/19/2017  17:45:56.140013	2.307449E-1	1.061524E-3	8.930096E-3	1.175230E-2	5.735997E-3	6.768098E-4	5.365675E-3	4.774709E-4
10/19/2017  17:45:56.141013	3.287562E-1	1.633693E-4	5.558174E-3	6.399093E-3	8.110221E-3	3.948623E-4	6.282093E-3	3.313564E-3
10/19/2017  17:45:56.142013	1.838676E-1	4.742490E-4	9.848050E-4	6.521296E-3	1.924050E-3	5.440027E-3	4.114479E-3	1.661829E-3
10/19/2017  17:45:56.143013	2.272930E-1	1.083650E-3	8.268274E-3	6.351560E-4	7.662447E-3	2.782933E-3	6.341673E-3	3.435217E-3
10/19/2017  17:45:56.144013	4.549868E-1	4.462069E-4	1.717389E-3	6.606664E-3	4.159540E-3	9.719306E-3	3.426473E-3	2.798650E-3
10/19/2017  17:45:56.145013	3.335155E-1	1.131635E-3	9.770887E-3	9.529426E-4	1.249395E-2	2.875507E-3	6.229008E-3	2.873693E-3
								
10/19/2017  17:45:56.146013	2.065919E-1	6.794939E-4	5.696097E-3	6.006710E-3	2.609635E-3	3.795697E-3	2.966913E-3	1.011021E-2
10/19/2017  17:45:56.147013	1.770898E-1	1.654709E-3	2.747464E-4	9.217630E-4	7.047602E-3	1.115405E-3	6.010659E-3	5.743257E-3
10/19/2017  17:45:56.148013	9.427990E-2	5.002289E-3	2.130610E-3	9.218362E-3	7.483862E-3	3.236465E-3	2.619745E-3	9.457758E-3
10/19/2017  17:45:56.149013	2.126152E-1	5.804030E-3	1.138295E-3	8.336766E-3	2.344880E-3	9.015411E-5	5.945774E-3	6.579214E-3
10/19/2017  17:45:56.150013	4.838942E-1	1.837507E-3	5.680647E-4	8.085253E-4	1.116010E-3	5.570078E-3	5.630166E-3	6.653755E-3
10/19/2017  17:45:56.151013	3.162852E-1	2.773849E-3	7.837192E-4	3.729920E-3	5.979601E-3	1.816350E-4	2.134572E-3	1.503610E-3
10/19/2017  17:45:56.152013	1.114678E-1	5.779052E-3	2.204391E-3	5.177867E-3	3.008571E-3	8.128156E-3	2.755349E-3	6.721745E-3
10/19/2017  17:45:56.153013	2.485595E-1	3.830869E-3	5.328685E-3	7.753866E-3	4.650421E-3	7.789694E-4	1.778729E-3	1.004483E-3
10/19/2017  17:45:56.154013	3.029173E-1	3.137547E-3	1.976824E-4	4.710058E-3	6.278315E-4	7.494685E-3	5.851625E-3	2.839434E-3
10/19/2017  17:45:56.155013	1.092982E-1	1.432439E-3	4.449404E-3	9.423419E-3	7.647472E-3	2.477616E-3	1.052308E-2	6.220531E-3
10/19/2017  17:45:56.156013	1.402981E-1	2.718612E-3	5.294198E-3	1.762059E-5	1.799041E-3	1.008567E-2	1.677681E-3	2.517288E-3
10/19/2017  17:45:56.157013	4.340420E-1	8.013181E-3	7.059534E-3	1.226523E-3	1.073167E-2	2.445514E-3	5.841731E-3	6.432644E-3
10/19/2017  17:45:56.158013	4.127486E-1	9.833522E-3	8.402338E-3	7.602104E-3	3.048960E-3	8.973580E-3	1.361566E-3	8.145136E-5
10/19/2017  17:45:56.159013	4.405034E-3	3.749982E-4	9.348235E-3	7.146464E-4	2.493582E-3	3.944615E-3	4.405045E-3	7.633545E-3
10/19/2017  17:45:56.160013	3.120544E-1	1.734365E-3	3.632513E-3	3.681659E-3	2.821851E-3	9.263897E-3	3.969165E-3	1.759543E-3
10/19/2017  17:45:56.161013	2.852111E-1	6.585813E-4	1.560989E-3	7.675439E-3	1.467444E-3	3.182343E-3	5.094856E-3	2.230759E-3
10/19/2017  17:45:56.162013	2.470764E-1	1.057778E-3	5.599760E-3	6.109778E-3	2.290401E-3	1.054062E-2	2.453137E-5	1.189976E-3
10/19/2017  17:45:56.163013	5.127828E-1	6.160796E-3	7.065473E-4	5.690366E-3	4.584316E-3	5.234959E-3	9.963892E-4	2.115796E-3
10/19/2017  17:45:56.164013	7.360607E-1	5.766363E-3	6.050596E-3	5.781235E-4	4.720669E-3	3.126452E-3	1.131110E-3	9.258796E-3
10/19/2017  17:45:56.165013	4.739738E-1	7.319131E-3	1.458340E-3	7.997588E-3	6.739214E-3	3.409152E-3	4.108884E-3	5.572658E-3
10/19/2017  17:45:56.166013	1.050196E-2	1.245235E-2	1.327343E-3	1.907522E-3	3.908074E-3	2.268411E-3	4.719290E-3	3.787425E-3
10/19/2017  17:45:56.167013	2.246910E-1	2.754704E-3	4.113453E-3	6.987413E-3	9.351617E-3	2.648192E-3	3.155480E-4	5.090553E-3
10/19/2017  17:45:56.168013	4.212646E-1	3.299238E-3	2.258031E-3	4.629096E-3	5.584649E-3	2.956252E-3	3.195430E-4	6.792526E-4
10/19/2017  17:45:56.169013	6.488076E-1	7.505930E-4	5.394185E-3	5.360450E-3	4.143992E-3	2.874996E-4	6.730518E-4	4.241989E-3
10/19/2017  17:45:56.170013	4.348171E-1	3.327870E-3	1.005970E-3	5.588515E-3	1.004189E-3	5.060528E-3	1.346645E-3	1.620806E-3
10/19/2017  17:45:56.171013	2.657011E-2	4.098497E-4	1.068235E-3	8.299283E-3	3.395068E-3	2.695310E-3	1.897752E-5	1.953196E-3
10/19/2017  17:45:56.172013	1.181732E-1	2.063160E-3	7.794049E-3	8.437460E-3	7.092382E-3	9.776936E-3	5.487896E-3	3.395203E-3
10/19/2017  17:45:56.173013	1.743942E-3	1.619165E-3	9.459429E-4	7.423230E-3	7.848065E-3	1.066011E-3	1.324295E-3	5.800909E-3
10/19/2017  17:45:56.174013	1.862935E-2	4.350949E-3	8.967897E-3	2.384107E-3	2.321459E-3	9.558593E-3	9.827825E-3	5.294747E-3
10/19/2017  17:45:56.175013	4.117370E-2	2.413097E-3	6.140932E-3	8.159365E-3	8.787903E-4	7.307666E-3	5.354364E-3	8.006220E-4
10/19/2017  17:45:56.176013	8.978673E-2	2.802490E-3	4.866649E-3	1.599515E-3	5.013898E-3	3.571508E-3	7.391296E-3	6.362546E-5
10/19/2017  17:45:56.177013	7.736717E-2	4.645032E-3	9.803268E-3	6.104215E-3	1.868920E-3	6.722159E-3	3.301556E-3	9.409189E-4
10/19/2017  17:45:56.178013	1.792467E-2	5.261027E-4	1.295271E-4	6.338533E-3	6.339976E-3	5.988781E-3	5.265899E-3	2.129784E-3
								
10/19/2017  17:45:56.179013	2.701839E-2	3.503102E-3	7.377611E-3	4.341429E-4	1.096884E-3	9.346205E-4	7.355353E-4	3.142683E-3
10/19/2017  17:45:56.180013	4.701128E-2	5.461207E-3	1.011793E-4	3.812729E-3	4.284156E-3	2.015553E-4	2.010357E-3	1.305862E-3
10/19/2017  17:45:56.181013	6.817595E-2	1.297298E-3	2.451828E-3	2.066199E-3	1.225290E-4	2.893190E-3	3.010616E-3	1.402229E-3
10/19/2017  17:45:56.182013	9.513851E-2	1.542300E-2	2.527071E-3	1.368770E-3	2.133883E-3	6.865059E-3	9.684517E-4	3.872953E-3
10/19/2017  17:45:56.183013	1.289773E-1	9.614838E-3	3.747918E-4	5.724555E-3	1.788688E-3	2.104128E-3	4.696034E-3	2.589544E-3
10/19/2017  17:45:56.184013	1.630439E-1	1.044561E-2	2.820234E-4	6.633907E-3	7.174771E-3	2.345873E-3	4.161993E-4	9.933513E-5
10/19/2017  17:45:56.185013	1.042075E-1	6.640332E-3	6.426528E-3	2.156691E-3	1.619288E-3	4.568514E-3	2.635950E-3	4.251232E-3
10/19/2017  17:45:56.186013	1.458984E-3	7.511411E-3	3.502334E-4	1.352961E-3	6.000325E-3	8.386208E-3	5.030909E-3	3.856999E-3
10/19/2017  17:45:56.187013	1.074458E-1	2.266767E-4	9.658695E-3	2.835461E-3	1.460617E-3	5.408806E-4	3.584423E-3	1.133324E-3
10/19/2017  17:45:56.188013	2.731647E-1	7.982215E-3	4.199344E-4	3.873234E-3	1.272996E-3	5.886413E-3	9.472187E-3	1.858189E-3
10/19/2017  17:45:56.189013	2.197812E-2	1.110552E-3	7.350057E-3	7.170371E-3	2.418708E-3	4.135090E-4	7.524531E-3	2.551061E-3
10/19/2017  17:45:56.190013	5.538154E-1	5.098106E-3	3.129463E-3	1.169840E-4	2.313157E-3	2.687790E-3	6.437697E-3	5.668241E-3
10/19/2017  17:45:56.191013	4.447653E-1	5.761273E-5	4.583567E-3	1.499830E-2	2.340812E-3	2.105288E-3	7.500964E-3	4.259562E-3
10/19/2017  17:45:56.192013	3.117374E-1	2.893365E-3	2.606286E-3	1.379720E-2	1.655993E-3	1.983712E-3	6.791815E-4	3.150769E-3
10/19/2017  17:45:56.193013	7.524510E-1	3.212806E-3	9.191079E-4	3.773611E-3	4.639496E-3	2.353163E-3	3.231301E-3	2.916030E-3
10/19/2017  17:45:56.194013	5.697753E-1	5.468876E-3	1.899075E-3	1.582477E-3	6.771108E-3	3.451771E-3	1.763680E-4	6.768850E-3
10/19/2017  17:45:56.195013	2.713931E-1	4.959313E-3	3.201570E-3	2.696286E-4	3.364973E-4	2.259709E-3	4.986827E-3	4.104501E-3
10/19/2017  17:45:56.196013	4.825495E-2	6.841223E-5	1.377478E-3	1.508505E-3	3.643039E-3	1.101937E-3	3.854347E-3	5.763122E-3
10/19/2017  17:45:56.197013	4.999206E-1	5.107673E-3	2.931401E-3	1.986205E-3	1.093544E-3	6.234782E-3	4.994906E-3	4.022669E-3
10/19/2017  17:45:56.198013	6.284333E-1	5.914172E-3	7.063585E-3	6.551735E-3	3.104818E-4	5.927607E-3	8.366790E-3	6.368306E-4
10/19/2017  17:45:56.199013	1.978120E-1	3.702413E-3	6.917344E-3	1.080247E-2	9.473450E-4	3.971359E-3	6.744383E-4	6.629009E-3
10/19/2017  17:45:56.200013	1.878964E-1	5.075033E-3	3.070300E-3	2.551477E-3	2.443549E-3	8.084982E-3	6.194166E-3	2.385807E-3
10/19/2017  17:45:56.201013	1.286614E-1	7.779949E-4	1.273921E-3	9.735870E-3	1.560970E-3	8.440376E-4	3.825279E-3	7.362646E-3
10/19/2017  17:45:56.202013	4.698906E-2	1.083674E-3	4.814013E-3	3.514338E-3	5.589440E-3	2.995801E-3	9.774672E-3	5.602352E-3
10/19/2017  17:45:56.203013	1.346763E-1	5.918000E-3	1.089861E-3	8.575085E-3	6.035476E-3	5.447987E-3	1.791783E-3	1.005532E-2
10/19/2017  17:45:56.204013	2.753134E-1	4.179743E-3	5.856976E-3	1.599961E-3	3.731821E-4	2.792318E-3	7.508309E-3	3.410148E-3
10/19/2017  17:45:56.205013	4.354959E-1	1.049613E-3	8.019591E-4	5.882059E-3	3.687814E-3	5.545470E-3	9.767175E-4	1.001212E-2
10/19/2017  17:45:56.206013	3.820694E-1	1.091759E-3	8.465521E-4	2.551798E-3	3.652988E-3	2.289646E-3	2.179878E-3	3.588337E-4
10/19/2017  17:45:56.207013	2.772422E-3	2.099752E-3	1.217312E-3	5.183328E-3	4.179525E-3	5.179962E-5	4.234615E-3	5.762454E-3
10/19/2017  17:45:56.208013	3.471013E-1	6.148255E-3	1.074503E-3	3.942651E-3	1.716265E-3	6.581952E-3	1.952673E-3	3.494439E-3
10/19/2017  17:45:56.209013	1.183807E-1	5.940855E-4	2.277197E-3	8.899044E-3	4.375064E-3	3.171418E-3	4.866220E-3	9.712898E-3
10/19/2017  17:45:56.210013	2.780846E-1	3.979468E-3	1.269052E-3	9.498438E-3	3.042063E-3	7.563532E-3	2.548510E-3	2.520941E-3
10/19/2017  17:45:56.211013	4.144523E-2	4.002944E-3	1.711322E-3	6.713404E-3	2.816660E-3	2.408178E-3	2.741954E-3	7.845271E-4
								
10/19/2017  17:45:56.212013	3.985221E-1	6.583606E-3	1.762417E-3	3.871752E-3	7.151692E-4	6.093582E-3	5.638975E-5	1.497309E-4
10/19/2017  17:45:56.213013	3.142888E-1	1.720509E-3	5.146525E-4	9.393283E-3	3.597981E-3	2.108907E-3	4.090637E-4	4.690997E-3
10/19/2017  17:45:56.214013	1.440977E-1	3.890803E-4	5.676414E-3	3.451492E-6	1.097061E-3	5.416199E-3	6.160673E-3	2.913810E-3
10/19/2017  17:45:56.215013	2.060069E-1	5.773021E-3	2.317688E-3	4.833889E-3	1.285051E-3	3.241215E-3	8.101383E-4	8.456355E-4
10/19/2017  17:45:56.216013	9.273501E-2	2.752292E-4	2.458507E-3	5.768587E-3	2.650021E-3	2.091630E-3	5.222546E-3	6.116323E-3
10/19/2017  17:45:56.217013	1.007167E-1	6.790635E-3	6.950577E-4	9.416584E-3	6.257746E-3	9.854073E-4	2.358413E-3	7.433555E-3
10/19/2017  17:45:56.218013	6.908892E-2	2.854001E-3	1.011924E-3	1.491548E-3	3.588944E-3	6.535437E-3	3.358040E-3	3.674134E-3
10/19/2017  17:45:56.219013	2.928323E-2	1.313592E-3	1.973823E-3	1.725908E-3	6.425782E-3	2.119738E-3	5.637158E-3	6.101863E-3
10/19/2017  17:45:56.220013	3.340461E-2	1.556259E-3	1.971228E-3	2.774850E-3	1.080262E-3	1.134504E-2	3.617897E-3	1.543886E-3
10/19/2017  17:45:56.221013	1.430957E-1	6.293674E-5	3.363422E-3	2.304413E-3	5.293992E-3	2.863589E-3	2.530865E-3	2.132302E-3
10/19/2017  17:45:56.222013	2.847677E-1	3.863556E-3	9.103535E-4	1.654238E-3	2.302085E-3	5.987343E-4	1.062016E-3	2.597155E-3
10/19/2017  17:45:56.223013	7.188263E-2	3.325752E-3	9.804253E-4	2.488349E-3	4.939028E-4	4.070633E-3	1.524169E-3	5.601007E-3
10/19/2017  17:45:56.224013	3.248383E-1	1.642102E-3	3.353459E-3	6.338916E-3	4.199827E-3	2.301123E-3	1.991234E-3	6.996219E-3
10/19/2017  17:45:56.225013	7.457511E-1	4.149014E-4	8.669751E-3	7.667142E-5	9.024694E-3	7.442886E-3	2.255063E-3	1.189950E-3
10/19/2017  17:45:56.226013	1.037898E+0	3.272838E-3	4.819592E-3	5.927571E-3	2.022315E-3	1.311464E-3	5.118656E-4	5.658437E-3
10/19/2017  17:45:56.227013	2.216736E-1	1.917763E-3	7.070938E-4	8.983000E-3	4.571005E-3	4.927578E-4	4.076474E-3	5.761977E-3
10/19/2017  17:45:56.228013	1.783600E+0	2.683892E-3	1.416669E-3	1.203781E-2	1.973935E-4	2.232232E-3	4.433867E-4	1.195148E-2
10/19/2017  17:45:56.229013	1.927115E+0	1.595316E-4	9.565260E-4	2.829728E-3	2.773337E-4	4.316387E-3	3.148494E-3	1.440727E-2
10/19/2017  17:45:56.230013	1.236246E+0	7.878421E-3	4.830244E-3	3.123560E-3	8.605480E-3	2.939748E-3	9.707723E-5	2.621341E-3
10/19/2017  17:45:56.231013	2.936521E+0	1.130230E-2	5.482254E-3	3.739256E-3	6.055233E-3	6.781837E-3	2.250021E-4	1.156947E-2
10/19/2017  17:45:56.232013	1.110044E-1	1.209454E-4	7.825963E-4	2.197072E-3	6.378344E-3	1.498596E-3	2.252232E-3	1.301773E-3
10/19/2017  17:45:56.233013	3.394432E+0	7.835592E-3	1.246853E-3	5.102724E-3	5.605967E-3	8.007099E-3	2.300873E-3	1.500841E-3
10/19/2017  17:45:56.234013	2.742099E+0	4.553245E-3	5.881391E-3	4.646857E-3	2.851859E-3	3.110585E-4	4.246785E-3	6.562200E-3
10/19/2017  17:45:56.235013	3.221373E-1	4.982911E-4	3.028820E-3	8.437680E-3	2.936859E-4	8.246371E-3	3.120741E-3	7.001442E-3
10/19/2017  17:45:56.236013	8.241302E-1	1.324255E-3	6.148081E-4	3.416781E-4	2.367981E-3	2.381204E-4	4.566213E-3	4.567753E-4
10/19/2017  17:45:56.237013	9.394732E-1	9.475119E-3	3.509471E-3	6.723469E-3	4.093101E-3	6.427493E-3	2.720677E-3	2.111160E-3
10/19/2017  17:45:56.238013	1.205945E+0	7.542389E-3	7.265457E-4	4.095832E-3	4.622870E-3	1.798359E-3	1.955343E-3	5.635143E-4
10/19/2017  17:45:56.239013	1.447144E+0	2.923505E-3	8.430050E-3	6.796370E-4	1.809664E-3	1.050326E-3	5.431704E-3	5.502326E-4
10/19/2017  17:45:56.240013	1.162190E+0	1.043373E-3	6.173908E-3	3.112001E-3	2.361813E-3	5.195947E-3	1.368018E-3	1.551944E-3
10/19/2017  17:45:56.241013	7.495767E-1	4.999728E-3	1.594816E-3	4.668425E-3	2.645669E-4	2.628045E-3	6.381504E-3	8.273175E-3
10/19/2017  17:45:56.242013	5.331834E-1	9.792686E-5	1.440319E-3	4.911458E-4	2.865893E-3	2.358497E-3	1.228710E-3	5.296964E-3
10/19/2017  17:45:56.243013	2.785852E-1	3.295450E-3	2.873530E-3	1.402230E-4	3.935123E-3	2.544448E-3	3.755565E-3	3.651461E-3
10/19/2017  17:45:56.244013	4.394913E-2	1.667295E-4	4.469457E-3	7.625321E-3	9.840542E-4	3.649486E-3	1.391210E-3	1.431872E-3
								
10/19/2017  17:45:56.245013	1.424406E-1	1.357978E-4	1.694221E-4	3.528571E-3	4.269108E-3	2.417036E-3	3.062973E-3	1.799948E-3
10/19/2017  17:45:56.246013	4.389404E-1	2.035781E-3	8.741105E-3	7.603071E-3	4.142450E-3	3.151047E-3	2.941086E-3	4.532447E-3
10/19/2017  17:45:56.247013	5.631172E-1	4.997788E-3	7.505898E-3	8.730983E-3	3.188180E-3	2.676707E-4	3.508008E-4	4.697640E-3
10/19/2017  17:45:56.248013	5.022809E-1	8.943438E-3	8.678061E-3	2.353137E-3	8.709714E-4	4.388623E-3	3.682503E-3	2.481142E-3
10/19/2017  17:45:56.249013	5.750421E-1	5.515645E-3	1.358588E-2	1.695277E-3	8.210972E-4	1.017525E-3	3.234959E-3	8.684826E-3
10/19/2017  17:45:56.250013	6.030159E-1	1.315582E-4	1.406533E-3	1.596397E-3	3.089871E-3	2.783781E-3	4.861186E-3	4.948290E-3
10/19/2017  17:45:56.251013	3.969303E-1	2.069762E-3	6.765873E-3	4.226280E-3	3.064897E-3	2.091599E-3	2.611823E-3	5.132546E-3
10/19/2017  17:45:56.252013	1.129032E-1	1.543724E-3	3.870007E-3	2.283395E-3	7.234005E-3	2.200261E-3	1.837242E-3	6.645952E-4
10/19/2017  17:45:56.253013	2.486726E-2	2.141700E-3	6.839569E-3	3.504817E-3	2.856855E-3	2.590212E-3	5.848178E-3	5.003221E-3
10/19/2017  17:45:56.254013	4.378069E-2	3.708956E-4	2.815948E-3	5.115620E-3	4.360550E-3	4.419802E-3	1.042162E-2	6.301521E-3
10/19/2017  17:45:56.255013	1.840878E-2	1.929767E-5	1.139192E-2	3.856548E-3	6.542829E-3	9.628938E-4	3.952531E-3	8.734388E-3
10/19/2017  17:45:56.256013	4.804636E-1	6.596984E-3	7.574570E-3	4.808941E-3	7.279468E-3	6.422409E-3	9.009042E-4	1.310567E-3
10/19/2017  17:45:56.257013	8.268962E-1	4.258569E-3	3.209085E-3	3.644023E-3	5.012885E-4	4.231603E-3	1.175961E-3	9.360566E-4
10/19/2017  17:45:56.258013	6.403730E-2	3.388757E-3	4.709235E-3	1.015734E-3	1.670129E-3	3.290006E-5	3.666839E-3	3.148830E-3
10/19/2017  17:45:56.259013	1.067246E+0	2.346981E-3	2.211799E-3	2.523781E-3	2.051694E-3	3.719968E-3	4.197195E-3	2.816205E-3
10/19/2017  17:45:56.260013	1.138557E+0	1.106094E-2	4.442759E-3	4.663294E-3	5.878889E-4	6.636341E-3	1.093536E-3	2.597130E-3
10/19/2017  17:45:56.261013	5.159900E-1	2.684346E-3	6.771680E-4	9.445720E-3	7.824126E-4	3.907701E-3	2.161121E-3	4.226425E-3
10/19/2017  17:45:56.262013	2.715584E-1	6.354728E-3	3.202653E-3	3.324062E-3	6.508002E-3	2.223860E-3	7.333328E-3	2.585484E-4
10/19/2017  17:45:56.263013	2.100620E-3	1.272902E-3	1.020994E-3	1.170964E-2	8.083881E-3	2.452280E-3	2.783306E-4	1.076575E-4
10/19/2017  17:45:56.264013	8.534377E-1	8.459804E-4	2.813932E-3	1.353272E-3	7.581068E-3	1.553910E-3	5.569771E-3	8.584373E-3
10/19/2017  17:45:56.265013	1.339312E+0	9.440545E-4	1.947137E-3	7.205106E-3	1.088223E-2	7.423505E-3	3.640322E-4	2.538511E-3
10/19/2017  17:45:56.266013	8.395471E-1	2.767964E-3	1.813485E-3	4.707330E-3	3.846335E-3	5.433429E-3	5.620525E-3	6.883161E-3
10/19/2017  17:45:56.267013	1.106231E-1	1.638113E-5	3.268283E-3	2.328040E-3	2.999360E-3	5.563541E-3	5.444296E-3	1.356889E-4
10/19/2017  17:45:56.268013	3.378529E-1	5.439618E-3	5.756142E-3	2.769015E-4	5.270524E-3	2.703605E-3	3.450778E-4	3.829531E-3
10/19/2017  17:45:56.269013	6.279012E-1	1.848697E-4	2.501656E-3	4.025736E-3	2.961236E-3	4.297726E-3	9.930149E-3	2.704650E-3
10/19/2017  17:45:56.270013	6.490344E-1	1.597029E-3	5.755708E-3	4.750101E-3	7.128600E-3	3.150266E-3	6.661346E-3	7.352543E-3
10/19/2017  17:45:56.271013	4.340308E-1	3.763130E-3	5.492036E-3	6.204434E-3	5.093135E-4	6.417371E-3	1.060092E-2	7.082323E-3
10/19/2017  17:45:56.272013	2.325991E-1	2.272032E-3	1.347616E-2	3.565578E-3	1.870185E-3	6.822901E-5	8.374800E-3	1.472713E-3
10/19/2017  17:45:56.273013	8.885184E-2	7.734069E-4	3.619842E-3	3.288887E-3	3.928152E-3	2.791765E-3	7.346230E-3	2.753969E-3
10/19/2017  17:45:56.274013	3.939196E-1	2.087061E-3	8.610062E-3	1.691476E-3	6.540284E-3	5.909271E-3	4.647015E-3	8.579365E-4
10/19/2017  17:45:56.275013	2.004579E-1	5.652003E-3	4.733262E-3	1.160436E-3	6.709077E-3	2.207168E-3	3.354813E-3	1.920208E-3
10/19/2017  17:45:56.276013	2.152628E-1	3.061812E-3	4.161003E-3	2.347456E-3	2.677243E-3	1.075867E-2	1.217148E-3	8.982652E-4
10/19/2017  17:45:56.277013	2.416787E-1	2.457957E-3	2.055349E-3	9.913691E-4	1.124781E-3	5.335579E-3	2.232053E-4	1.672687E-3
								
10/19/2017  17:45:56.278013	2.091400E-2	2.158368E-3	3.595644E-3	1.235943E-3	1.249442E-3	1.054629E-2	3.061694E-5	6.493496E-3
10/19/2017  17:45:56.279013	4.397638E-2	3.446744E-4	2.295719E-4	2.258522E-3	2.305414E-3	5.762482E-3	1.009875E-3	6.128205E-3
10/19/2017  17:45:56.280013	3.126764E-1	1.811389E-4	4.070460E-3	3.604471E-4	3.592462E-3	2.849080E-3	3.139194E-4	6.887393E-3
10/19/2017  17:45:56.281013	5.533816E-1	3.624865E-3	7.202088E-4	3.192175E-3	6.811001E-3	1.564112E-3	4.188470E-5	8.238132E-3
10/19/2017  17:45:56.282013	6.549751E-1	6.867575E-3	2.057756E-3	3.452229E-3	3.815100E-3	1.854465E-3	1.320883E-3	6.523851E-3
10/19/2017  17:45:56.283013	3.956068E-1	3.679568E-4	1.798152E-3	4.000345E-3	9.123384E-3	9.100140E-5	4.372073E-3	9.282317E-3
10/19/2017  17:45:56.284013	3.804626E-1	4.671733E-3	3.625511E-3	7.620236E-4	7.134374E-3	2.980924E-3	1.563556E-3	2.025419E-3
10/19/2017  17:45:56.285013	1.061056E+0	3.286598E-3	5.707680E-3	4.667265E-3	3.769752E-3	1.757360E-3	8.068929E-3	5.700917E-3
10/19/2017  17:45:56.286013	8.707173E-1	3.919420E-3	3.718681E-3	2.555409E-4	1.294769E-3	7.385474E-3	2.784600E-3	5.451707E-4
10/19/2017  17:45:56.287013	2.629246E-1	5.476929E-3	1.115765E-3	4.748279E-3	5.948267E-3	7.958234E-5	1.384414E-3	5.977368E-3
10/19/2017  17:45:56.288013	3.079209E-1	5.970164E-3	9.143483E-3	9.652516E-3	8.222479E-4	4.927037E-3	8.627954E-3	5.291078E-3
10/19/2017  17:45:56.289013	5.756315E-1	1.203753E-3	3.110520E-3	8.056469E-3	4.997887E-4	9.724013E-4	3.238598E-3	1.703396E-3
10/19/2017  17:45:56.290013	2.185829E-1	7.770541E-4	4.926103E-3	1.551134E-2	1.579671E-3	3.198917E-3	8.279321E-3	5.482328E-3
10/19/2017  17:45:56.291013	1.510760E+0	2.201331E-3	9.706605E-4	1.279161E-2	5.321204E-3	5.899013E-4	3.927936E-3	1.577765E-4
10/19/2017  17:45:56.292013	1.497441E+0	5.172152E-3	1.640375E-4	5.198613E-3	2.035062E-3	3.867025E-5	3.012833E-3	1.123302E-3
10/19/2017  17:45:56.293013	1.149433E-1	2.843796E-5	1.588748E-3	4.275998E-4	9.055785E-3	2.599138E-3	2.539215E-3	5.364300E-3
10/19/2017  17:45:56.294013	9.950174E-1	3.901928E-3	1.268232E-3	4.650500E-3	3.144127E-3	1.550349E-3	6.295067E-3	6.022678E-3
10/19/2017  17:45:56.295013	1.039768E+0	2.032780E-3	5.317342E-4	3.339111E-3	7.316968E-3	6.046599E-3	7.707180E-4	2.201153E-3
10/19/2017  17:45:56.296013	5.303223E-1	3.764684E-3	2.620210E-3	1.588289E-3	5.559763E-3	5.047598E-3	4.593305E-3	5.691716E-4
10/19/2017  17:45:56.297013	1.282787E-2	4.034482E-3	5.394985E-4	1.099595E-3	2.652524E-3	2.129711E-3	3.722387E-3	2.104117E-3
10/19/2017  17:45:56.298013	1.640868E-1	1.620221E-3	2.553296E-3	5.565192E-3	3.047965E-4	9.030680E-4	1.496635E-3	2.456049E-3
10/19/2017  17:45:56.299013	7.539369E-3	4.038839E-3	3.553397E-3	2.188121E-3	7.911597E-5	2.090427E-3	4.556029E-3	7.328967E-4
10/19/2017  17:45:56.300013	1.489118E-1	4.145542E-3	6.512509E-3	4.037399E-3	7.330968E-3	1.102142E-3	3.735811E-3	1.194307E-3
10/19/2017  17:45:56.301013	1.685335E-1	3.498873E-3	1.647769E-3	2.335225E-3	3.684807E-3	1.178879E-3	1.580203E-3	6.518691E-3
10/19/2017  17:45:56.302013	1.419361E-1	1.583408E-3	2.184531E-3	3.141310E-3	1.181539E-2	1.410843E-3	1.013380E-3	4.728094E-3
10/19/2017  17:45:56.303013	9.318281E-3	2.514698E-3	3.986475E-3	3.463430E-3	1.022670E-2	3.824020E-3	6.272873E-4	1.757644E-3
10/19/2017  17:45:56.304013	3.261896E-1	2.823736E-3	1.145110E-3	2.124091E-3	3.117791E-3	2.057277E-3	5.964332E-3	2.542250E-3
10/19/2017  17:45:56.305013	7.857548E-1	1.641702E-3	5.214050E-3	2.930194E-3	4.039047E-3	3.443304E-3	3.374152E-3	3.257344E-3
10/19/2017  17:45:56.306013	9.068844E-1	2.022911E-3	1.985110E-3	3.994294E-3	4.756287E-4	4.366353E-3	3.924046E-3	8.857574E-3
10/19/2017  17:45:56.307013	1.164488E-1	5.563686E-4	2.820297E-3	6.011185E-3	1.716245E-3	3.406762E-3	1.691926E-3	4.352657E-3
10/19/2017  17:45:56.308013	8.660743E-1	3.119618E-4	1.679136E-3	6.114674E-3	2.349275E-3	2.491092E-3	2.874818E-3	6.658124E-3
10/19/2017  17:45:56.309013	9.433896E-1	2.203619E-3	2.577792E-3	4.342343E-3	1.067534E-4	8.907681E-4	5.657165E-4	6.033052E-3
10/19/2017  17:45:56.310013	3.785027E-1	3.352858E-3	1.336276E-3	6.799834E-4	6.414450E-5	4.263489E-3	3.081899E-3	4.002723E-4
								
10/19/2017  17:45:56.311013	1.312833E-1	4.688017E-3	7.116038E-4	5.363038E-3	2.742427E-3	2.685504E-3	8.774440E-3	3.560270E-3
10/19/2017  17:45:56.312013	3.798220E-1	5.430525E-4	4.668682E-3	1.220125E-4	1.893669E-4	3.749657E-3	9.981681E-3	3.075075E-3
10/19/2017  17:45:56.313013	3.311021E-1	5.698154E-4	1.575504E-3	4.304827E-3	4.067602E-3	1.747224E-3	1.365464E-3	7.138982E-4
10/19/2017  17:45:56.314013	2.322723E-1	5.934539E-4	5.416448E-3	4.505752E-3	2.626279E-3	7.094617E-3	5.416821E-3	3.637064E-3
10/19/2017  17:45:56.315013	3.082134E-1	4.435306E-3	6.847834E-3	7.286375E-4	2.245737E-4	6.940084E-3	2.906883E-3	4.838234E-3
10/19/2017  17:45:56.316013	3.643306E-1	9.189580E-3	4.064998E-3	3.620148E-3	4.245369E-4	4.707737E-3	1.236929E-3	3.571901E-4
10/19/2017  17:45:56.317013	3.455215E-1	8.495153E-3	4.215647E-3	1.921550E-3	3.464797E-3	7.839016E-3	3.597948E-3	3.868903E-3
10/19/2017  17:45:56.318013	3.388134E-1	9.199657E-4	4.321158E-3	9.151536E-3	3.137652E-3	3.857947E-4	2.279663E-3	8.626530E-3
10/19/2017  17:45:56.319013	1.275534E-3	7.772601E-3	1.943077E-3	5.576118E-3	3.620770E-3	1.758100E-3	4.451459E-3	1.044205E-3
10/19/2017  17:45:56.320013	7.085241E-1	5.771492E-3	8.741161E-4	4.840371E-3	3.628013E-3	1.081673E-4	5.930917E-4	9.883170E-3
10/19/2017  17:45:56.321013	7.863043E-1	6.218040E-4	1.841107E-3	1.072646E-2	8.019210E-4	3.985245E-3	8.129084E-4	9.058137E-3
10/19/2017  17:45:56.322013	2.879321E-1	9.789230E-4	4.716905E-3	3.923256E-3	1.293177E-3	6.432604E-3	3.850873E-3	1.576091E-3
10/19/2017  17:45:56.323013	1.182956E+0	9.638894E-4	3.884319E-3	3.838831E-3	4.227486E-3	3.079481E-3	5.719658E-3	1.717680E-4
10/19/2017  17:45:56.324013	4.471589E-1	6.199676E-4	5.373024E-3	2.959628E-3	5.128128E-3	7.399855E-4	3.857825E-3	1.616225E-3
10/19/2017  17:45:56.325013	1.196799E+0	2.385904E-3	3.143357E-3	3.831412E-4	3.585613E-3	4.066676E-3	2.035082E-3	7.062228E-5
10/19/2017  17:45:56.326013	1.650204E+0	5.274996E-4	4.464936E-3	6.414504E-3	2.241449E-3	1.963528E-3	2.390677E-3	1.359569E-3
10/19/2017  17:45:56.327013	5.466042E-1	7.272116E-3	1.315996E-4	1.007989E-2	2.372212E-3	3.606738E-3	4.393452E-3	5.513972E-3
10/19/2017  17:45:56.328013	1.007735E-1	6.425660E-3	5.237687E-3	5.877467E-5	1.373677E-3	3.956615E-4	1.488263E-4	3.325271E-3
10/19/2017  17:45:56.329013	4.958367E-1	1.547215E-3	5.002786E-3	5.031163E-3	9.137535E-4	4.757462E-3	1.763352E-3	1.183942E-3
10/19/2017  17:45:56.330013	6.693746E-1	3.298977E-3	7.125600E-3	3.864577E-4	3.328477E-3	2.484435E-3	4.820356E-4	3.066300E-3
10/19/2017  17:45:56.331013	1.027870E-2	1.076834E-3	4.206865E-3	1.968131E-3	4.174747E-3	3.211302E-4	1.416162E-3	1.129789E-3
10/19/2017  17:45:56.332013	2.609417E-1	1.718385E-3	4.142598E-3	5.781278E-3	2.752635E-3	4.453795E-3	1.497648E-3	4.482429E-3
10/19/2017  17:45:56.333013	3.324013E-1	1.605688E-3	5.380030E-4	4.693541E-6	4.378131E-3	8.198382E-3	2.290695E-3	1.694977E-3
10/19/2017  17:45:56.334013	7.957506E-1	4.915347E-3	2.483258E-3	2.844018E-3	5.239424E-4	1.100456E-4	3.173449E-3	1.865909E-3
10/19/2017  17:45:56.335013	1.046975E+0	2.684361E-3	3.640551E-3	1.694713E-3	4.171372E-3	7.569062E-3	2.301298E-4	6.658817E-4
10/19/2017  17:45:56.336013	9.204500E-1	8.048387E-3	3.262552E-3	3.374876E-3	1.802466E-4	2.240178E-3	2.196886E-3	9.236173E-5
10/19/2017  17:45:56.337013	9.152951E-1	3.532902E-3	2.661874E-3	8.271716E-4	7.494206E-4	1.197998E-3	1.785691E-3	4.743285E-3
10/19/2017  17:45:56.338013	7.678936E-1	7.403042E-3	1.539089E-3	2.003121E-3	6.357345E-3	2.597391E-4	2.710228E-3	1.511704E-3
10/19/2017  17:45:56.339013	9.955941E-4	6.654597E-3	3.650940E-3	2.835345E-3	7.510826E-3	7.035074E-4	1.928840E-3	2.609684E-3
10/19/2017  17:45:56.340013	8.798228E-1	5.814632E-3	3.313023E-3	1.637104E-3	3.032814E-3	2.892542E-3	1.710873E-3	3.273416E-3
10/19/2017  17:45:56.341013	1.069990E+0	4.491578E-3	2.103418E-3	2.736321E-3	3.082584E-3	3.014974E-4	3.838707E-5	2.586282E-3
10/19/2017  17:45:56.342013	5.784706E-1	4.922937E-3	1.947320E-3	3.625867E-3	6.597103E-3	3.420835E-3	5.780460E-3	2.946985E-3
10/19/2017  17:45:56.343013	6.332849E-2	6.300277E-3	1.904811E-3	1.222468E-3	6.432698E-3	9.198567E-4	2.140597E-3	9.642825E-4
								
10/19/2017  17:45:56.344013	4.835133E-1	2.283589E-3	3.257429E-3	6.794931E-3	4.425282E-3	1.478997E-3	5.286387E-3	2.219158E-3
10/19/2017  17:45:56.345013	5.261705E-1	1.920972E-3	4.126137E-3	1.021296E-2	2.125634E-3	1.783644E-3	8.785625E-4	2.745908E-3
10/19/2017  17:45:56.346013	1.645971E-1	4.777953E-3	2.485784E-3	7.447772E-3	3.091244E-3	1.302154E-3	4.543434E-3	6.694811E-3
10/19/2017  17:45:56.347013	3.425250E-1	7.137657E-3	4.868397E-3	6.483957E-3	4.211436E-3	2.835802E-4	4.999154E-3	6.062563E-3
10/19/2017  17:45:56.348013	5.374857E-1	7.506796E-3	5.304012E-3	1.169183E-2	1.759255E-3	5.503524E-3	8.900700E-3	4.563525E-3
10/19/2017  17:45:56.349013	3.538003E-1	1.441230E-3	4.381406E-7	2.691161E-3	3.147122E-3	1.539985E-3	5.666898E-3	1.556164E-3
10/19/2017  17:45:56.350013	1.466937E-1	6.439007E-3	2.791704E-3	7.884563E-3	3.911577E-3	7.102384E-3	2.459147E-3	3.746650E-3
10/19/2017  17:45:56.351013	8.530649E-2	1.373604E-3	3.708438E-3	5.148922E-3	4.503106E-4	1.252194E-3	5.453988E-3	3.336140E-3
10/19/2017  17:45:56.352013	7.384012E-2	3.830645E-4	6.035333E-3	8.293088E-3	8.634161E-3	3.952925E-3	7.621077E-3	6.549400E-3
10/19/2017  17:45:56.353013	6.486375E-2	1.252281E-2	3.842974E-3	1.918736E-3	1.560595E-3	2.557072E-3	6.466415E-4	9.970587E-5
10/19/2017  17:45:56.354013	3.163793E-2	9.704146E-3	4.900486E-4	2.315640E-3	5.198441E-3	2.868569E-3	8.219558E-4	5.265096E-3
10/19/2017  17:45:56.355013	2.127268E-1	5.602914E-3	5.230100E-4	5.893089E-3	2.473005E-3	1.498164E-3	3.764009E-3	3.590203E-3
10/19/2017  17:45:56.356013	5.821769E-1	8.007284E-3	1.535609E-3	2.752131E-3	5.580539E-4	5.109356E-3	7.465979E-4	2.537711E-3
10/19/2017  17:45:56.357013	5.461760E-1	2.338989E-3	8.520147E-4	6.970586E-3	4.160180E-3	6.470792E-3	3.718244E-3	4.806437E-3
10/19/2017  17:45:56.358013	8.054833E-2	7.119799E-5	8.557798E-4	3.675863E-3	3.167239E-3	2.654301E-3	8.824546E-4	2.844443E-3
10/19/2017  17:45:56.359013	2.683820E-1	4.802975E-4	3.961781E-4	1.568029E-3	1.904960E-3	3.051724E-3	4.163713E-3	4.037741E-4
10/19/2017  17:45:56.360013	3.483866E-1	1.603802E-3	3.055657E-3	6.335484E-3	1.501659E-3	4.772156E-3	2.960947E-3	1.748052E-3
10/19/2017  17:45:56.361013	2.932581E-1	2.870984E-3	5.918022E-5	3.384874E-3	5.907735E-3	8.051489E-4	2.019156E-3	3.648873E-3
10/19/2017  17:45:56.362013	1.326070E-1	2.275062E-3	1.702336E-3	1.371197E-2	1.941773E-3	2.090978E-3	3.666413E-3	3.340907E-3
10/19/2017  17:45:56.363013	1.051486E-1	8.059708E-4	8.936202E-4	9.030244E-3	3.649647E-4	5.853510E-5	2.885925E-3	6.061584E-3
10/19/2017  17:45:56.364013	3.521519E-1	7.132108E-4	1.429243E-3	9.001953E-3	1.744729E-3	6.308587E-4	6.401735E-4	4.255457E-3
10/19/2017  17:45:56.365013	5.134144E-1	4.058079E-3	4.296112E-3	6.944814E-3	1.572787E-5	4.751440E-4	7.911590E-4	1.828028E-3
10/19/2017  17:45:56.366013	4.877560E-1	1.714730E-3	2.376223E-3	2.175890E-3	3.786574E-3	4.940027E-3	6.703771E-3	2.894395E-3
10/19/2017  17:45:56.367013	2.515107E-1	7.136130E-3	6.836487E-3	8.179763E-4	9.347922E-4	4.930111E-3	8.250450E-3	4.137314E-3
10/19/2017  17:45:56.368013	6.886357E-1	2.891237E-3	2.873326E-3	5.231431E-3	3.566532E-3	4.003085E-4	1.270300E-3	9.504359E-4
10/19/2017  17:45:56.369013	1.602633E+0	2.227149E-3	7.071157E-3	2.285372E-3	1.275870E-3	1.881911E-4	1.761717E-3	2.541621E-3
10/19/2017  17:45:56.370013	8.821110E-1	4.340003E-3	1.267360E-3	3.230717E-3	6.311108E-3	5.962200E-4	7.108495E-3	4.706216E-4
10/19/2017  17:45:56.371013	7.383116E-1	4.053280E-4	1.364773E-2	6.004716E-3	1.398754E-3	1.071635E-3	4.410509E-3	3.374079E-3
10/19/2017  17:45:56.372013	1.210469E+0	8.283353E-3	6.212478E-3	6.009428E-3	9.496330E-4	2.392088E-3	6.138849E-4	3.783118E-3
10/19/2017  17:45:56.373013	6.985065E-1	5.253453E-3	7.762738E-3	3.543487E-3	3.253416E-3	3.848407E-3	6.849318E-4	6.388190E-3
10/19/2017  17:45:56.374013	4.341786E-1	4.078456E-3	5.335820E-3	1.442282E-3	2.954715E-3	1.469901E-3	2.128509E-3	2.691028E-3
10/19/2017  17:45:56.375013	1.534374E-1	2.128917E-4	3.772406E-3	3.215024E-3	1.274037E-3	5.988900E-3	3.010718E-3	7.271308E-3
10/19/2017  17:45:56.376013	5.751758E-1	5.857462E-3	1.399033E-3	1.016523E-3	4.071002E-3	7.329373E-3	2.956168E-4	3.655040E-3
								
10/19/2017  17:45:56.377013	9.448662E-1	2.377616E-3	4.368574E-3	4.130103E-3	3.602879E-4	1.319930E-3	1.708413E-3	6.024014E-3
10/19/2017  17:45:56.378013	6.070030E-1	1.564230E-3	3.604771E-3	8.479604E-3	8.334555E-3	3.702714E-3	3.750961E-3	4.978211E-3
10/19/2017  17:45:56.379013	2.810830E-1	2.867798E-3	3.961897E-3	3.348393E-3	3.781361E-3	5.624102E-3	3.308161E-3	2.260645E-3
10/19/2017  17:45:56.380013	1.102036E-1	2.511557E-3	4.154414E-3	3.983581E-3	8.752253E-3	6.874802E-4	3.891342E-3	1.846670E-3
10/19/2017  17:45:56.381013	1.215924E-1	2.519888E-3	4.852331E-3	7.757759E-3	3.980875E-3	4.785642E-3	4.173710E-4	1.729832E-3
10/19/2017  17:45:56.382013	5.875513E-2	5.633516E-3	8.241736E-3	8.950356E-3	5.029096E-3	7.248179E-4	1.669734E-3	4.012418E-3
10/19/2017  17:45:56.383013	6.832525E-1	3.844859E-3	4.294162E-3	1.720811E-3	5.754449E-4	5.483093E-3	3.578019E-3	2.495171E-3
10/19/2017  17:45:56.384013	8.876052E-1	2.110129E-3	9.530154E-3	6.182575E-3	2.516858E-3	1.101902E-3	2.806419E-3	1.074600E-3
10/19/2017  17:45:56.385013	4.871054E-1	1.624631E-3	3.573922E-4	5.419593E-4	2.335808E-3	1.777531E-3	3.317392E-3	7.873317E-4
10/19/2017  17:45:56.386013	6.136806E-2	7.765788E-4	2.972709E-3	2.566807E-3	6.293618E-3	7.238676E-3	1.129596E-3	2.756334E-3
10/19/2017  17:45:56.387013	8.219402E-1	2.707205E-3	2.141397E-3	8.390888E-3	2.775459E-3	4.628604E-3	6.414259E-3	2.388428E-4
10/19/2017  17:45:56.388013	1.353265E+0	4.135217E-4	7.608570E-3	8.016102E-3	5.940990E-3	4.094846E-4	2.182253E-3	4.668304E-3
10/19/2017  17:45:56.389013	6.942869E-1	1.129010E-3	9.206365E-3	2.622635E-3	2.078864E-3	3.124545E-3	9.478195E-3	2.844512E-3
10/19/2017  17:45:56.390013	1.994901E-1	4.443623E-3	4.662249E-3	3.634801E-4	5.388506E-3	8.622579E-3	5.057662E-3	1.143156E-3
10/19/2017  17:45:56.391013	2.120291E-1	2.873378E-3	4.633544E-4	1.550394E-3	4.920453E-4	5.270605E-3	2.863251E-3	2.246934E-3
10/19/2017  17:45:56.392013	9.154754E-1	4.696673E-3	7.116144E-3	6.992217E-3	5.935301E-3	7.416946E-3	2.931844E-3	2.160708E-3
10/19/2017  17:45:56.393013	5.666269E-1	2.639903E-3	9.599574E-3	4.164150E-3	3.290556E-4	1.791963E-3	2.625414E-3	8.676987E-4
10/19/2017  17:45:56.394013	1.067442E-1	3.345018E-3	7.922488E-4	4.931995E-4	2.482372E-4	1.309886E-2	2.071076E-3	3.520826E-3
10/19/2017  17:45:56.395013	4.139149E-1	2.558994E-3	3.691435E-3	9.337312E-3	4.206791E-3	3.615331E-3	3.287715E-3	4.575475E-4
10/19/2017  17:45:56.396013	5.567943E-1	7.832394E-3	5.773874E-3	3.222528E-3	4.288957E-4	9.406958E-3	1.855120E-3	1.618599E-3
10/19/2017  17:45:56.397013	4.819888E-1	2.353860E-4	4.188391E-3	1.857910E-2	2.289472E-5	2.505051E-4	5.283725E-3	7.976195E-3
10/19/2017  17:45:56.398013	2.427308E-1	2.233632E-3	4.073971E-3	1.626517E-2	2.986416E-3	3.431152E-3	4.167405E-3	1.894953E-3
10/19/2017  17:45:56.399013	1.219846E-1	4.042804E-3	6.542560E-4	6.165645E-3	8.343968E-3	5.236886E-3	7.474736E-3	9.645206E-3
10/19/2017  17:45:56.400013	3.399747E-2	5.336107E-4	2.286912E-3	1.201364E-2	1.155418E-2	4.483447E-4	1.746412E-4	2.417139E-3
10/19/2017  17:45:56.401013	1.957117E-1	5.560654E-3	1.246047E-3	1.139455E-3	3.748507E-3	5.791225E-3	1.792482E-3	8.583003E-3
10/19/2017  17:45:56.402013	4.687378E-3	3.721163E-4	1.049578E-3	6.272097E-3	6.644757E-3	2.653343E-3	2.199887E-4	2.509520E-3
10/19/2017  17:45:56.403013	1.711900E-1	4.296408E-3	1.853756E-3	2.378605E-4	1.942214E-3	3.700626E-3	2.177276E-3	1.386057E-2
10/19/2017  17:45:56.404013	3.076249E-2	2.454984E-3	3.532234E-3	1.351894E-2	6.762002E-4	4.822015E-3	9.976365E-4	4.556971E-3
10/19/2017  17:45:56.405013	3.942497E-2	6.657814E-3	1.852665E-4	1.076040E-2	3.512961E-3	2.020716E-4	5.284366E-4	2.975781E-3
10/19/2017  17:45:56.406013	3.353446E-1	3.206630E-3	8.104676E-3	7.188032E-3	2.200393E-3	6.270783E-3	1.360065E-2	7.463529E-4
10/19/2017  17:45:56.407013	4.864652E-1	7.021160E-4	4.637976E-3	8.303765E-3	1.072110E-3	1.671360E-3	1.029664E-2	2.417282E-5
10/19/2017  17:45:56.408013	1.969515E-1	2.881706E-3	6.935281E-3	3.001116E-3	3.731869E-3	3.920480E-3	9.172734E-3	3.100351E-3
10/19/2017  17:45:56.409013	4.664023E-2	2.605742E-3	1.190435E-2	2.389598E-3	1.020991E-3	5.750808E-3	8.027746E-3	2.557237E-3
								
10/19/2017  17:45:56.410013	1.581742E-1	8.481740E-4	6.163988E-3	3.137308E-3	1.998519E-3	4.454439E-3	6.214728E-3	3.767699E-3
10/19/2017  17:45:56.411013	2.154520E-1	1.825950E-3	8.536044E-4	4.752357E-3	6.818989E-3	5.159547E-3	1.456235E-3	2.501482E-3
10/19/2017  17:45:56.412013	5.547654E-1	6.061890E-3	3.181440E-3	3.036094E-3	4.212019E-3	3.174650E-3	7.613988E-3	4.232531E-3
10/19/2017  17:45:56.413013	1.285070E+0	7.600355E-4	4.475338E-3	5.627150E-3	7.546685E-3	1.435399E-3	6.247831E-4	3.239737E-3
10/19/2017  17:45:56.414013	9.079026E-1	7.031093E-3	3.599820E-3	9.173783E-3	6.833832E-3	1.551657E-3	3.082758E-3	4.161514E-3
10/19/2017  17:45:56.415013	3.949747E-2	7.284911E-3	5.588819E-4	3.409706E-3	2.666264E-3	8.356957E-4	1.586588E-3	1.448743E-3
10/19/2017  17:45:56.416013	2.297697E-1	2.269442E-3	2.898036E-4	1.349983E-2	8.734062E-3	6.184282E-4	1.731338E-3	3.415876E-3
10/19/2017  17:45:56.417013	2.146869E-3	1.373113E-3	3.245001E-3	5.269079E-3	6.130446E-3	4.808877E-3	9.214251E-4	1.644220E-3
10/19/2017  17:45:56.418013	1.754028E-1	6.089047E-4	5.307436E-3	5.366065E-3	4.843330E-3	1.337073E-3	7.548515E-3	3.530282E-3
10/19/2017  17:45:56.419013	1.010176E+0	2.039599E-3	2.427949E-3	1.756771E-3	9.281372E-3	6.567595E-3	7.724790E-4	1.431705E-4
10/19/2017  17:45:56.420013	1.298740E+0	2.352682E-3	5.529555E-3	3.569050E-3	2.496583E-4	2.566373E-3	6.756151E-3	2.361308E-3
10/19/2017  17:45:56.421013	8.069691E-2	3.041731E-3	3.763220E-3	1.574582E-3	5.967097E-3	3.430918E-3	4.554182E-3	1.454763E-3
10/19/2017  17:45:56.422013	1.116215E+0	1.476521E-3	4.948061E-3	8.446419E-3	4.195420E-4	5.793066E-3	7.837496E-3	7.244160E-3
10/19/2017  17:45:56.423013	7.388284E-1	5.177878E-4	3.922733E-3	9.612143E-3	5.621096E-3	8.729577E-4	2.973023E-3	4.235348E-3
10/19/2017  17:45:56.424013	9.210171E-3	5.324894E-3	4.971275E-3	2.540063E-3	3.818113E-4	5.823271E-3	3.890039E-3	3.672398E-3
10/19/2017  17:45:56.425013	1.734051E-2	6.753258E-4	2.827583E-4	6.612388E-3	2.665766E-3	3.549958E-3	2.246527E-3	3.803358E-3
10/19/2017  17:45:56.426013	1.600775E-1	8.705758E-3	6.894182E-4	5.611839E-3	4.291183E-3	5.834495E-3	6.352692E-3	8.344918E-3
10/19/2017  17:45:56.427013	6.360046E-1	3.872073E-3	3.982817E-3	1.743844E-3	2.714898E-3	4.947362E-3	2.043488E-3	2.000547E-3
10/19/2017  17:45:56.428013	2.230726E-1	1.486159E-3	7.147458E-3	3.974396E-3	4.361944E-3	2.713958E-3	4.524849E-3	5.391966E-3
10/19/2017  17:45:56.429013	7.253356E-1	2.753771E-3	1.544234E-3	3.762164E-3	2.956296E-3	7.347049E-3	1.328373E-3	9.103655E-4
10/19/2017  17:45:56.430013	6.786010E-1	4.778433E-3	7.930910E-3	2.285709E-3	9.316054E-4	5.727472E-3	3.301364E-4	3.673050E-3
10/19/2017  17:45:56.431013	1.927190E-1	2.439088E-3	7.150214E-3	6.851213E-3	1.816125E-3	2.692136E-3	3.215800E-3	4.000534E-3
10/19/2017  17:45:56.432013	5.391526E-1	1.461472E-3	1.974567E-3	4.234405E-3	2.429554E-4	8.271150E-3	2.059642E-4	4.360515E-3
10/19/2017  17:45:56.433013	2.095248E-1	2.241613E-3	5.597203E-3	2.712307E-3	1.073374E-3	4.673869E-3	5.591292E-3	3.762377E-3
10/19/2017  17:45:56.434013	6.295303E-2	6.491778E-3	7.396799E-4	6.529259E-3	2.488529E-3	3.155979E-3	1.476169E-3	5.203629E-3
10/19/2017  17:45:56.435013	2.469192E-1	2.667397E-3	7.837611E-3	3.209572E-3	4.155750E-3	1.919816E-3	4.071392E-3	3.419871E-3
10/19/2017  17:45:56.436013	1.397330E-1	2.227220E-3	4.905662E-3	4.884348E-3	1.416880E-4	2.045040E-3	9.194865E-4	1.638985E-3
10/19/2017  17:45:56.437013	2.043765E-1	1.858932E-3	2.329784E-3	4.847183E-3	5.635650E-3	6.206944E-4	2.522934E-3	4.397487E-3
10/19/2017  17:45:56.438013	1.948982E-1	5.001594E-3	2.488235E-3	5.218332E-3	2.869616E-3	2.236759E-3	5.302559E-3	7.820177E-3
10/19/2017  17:45:56.439013	4.451814E-2	1.017611E-4	1.287115E-3	4.040506E-3	6.196175E-3	1.537695E-3	4.144649E-3	1.042047E-3
10/19/2017  17:45:56.440013	2.205415E-1	1.053218E-3	3.309564E-3	6.552722E-3	8.155875E-3	6.191864E-3	3.014503E-3	2.868018E-3
10/19/2017  17:45:56.441013	3.370604E-1	7.279758E-3	5.142010E-4	2.187001E-3	8.696285E-4	3.809092E-3	8.123367E-4	3.908334E-3
10/19/2017  17:45:56.442013	3.282001E-2	8.629086E-5	4.991178E-3	8.920975E-3	6.230713E-3	4.834837E-3	5.105930E-3	5.647815E-3
								
10/19/2017  17:45:56.443013	3.525262E-1	7.617402E-3	4.647088E-4	5.258475E-3	1.706630E-3	3.415301E-3	5.611517E-4	2.982746E-3
10/19/2017  17:45:56.444013	5.565053E-1	1.666859E-3	2.485057E-3	5.067784E-3	1.704844E-3	3.502712E-3	3.489904E-4	2.884626E-3
10/19/2017  17:45:56.445013	5.416179E-1	1.794216E-3	1.505231E-3	5.495652E-3	2.325854E-3	1.512290E-3	6.162709E-4	7.135924E-3
10/19/2017  17:45:56.446013	3.339720E-1	1.448186E-3	3.384027E-3	5.314844E-4	9.082825E-4	6.334003E-3	3.932011E-3	2.728855E-3
10/19/2017  17:45:56.447013	1.095636E-1	4.572254E-3	8.904934E-4	1.842192E-4	5.109135E-3	3.494263E-3	4.610040E-3	4.981357E-3
10/19/2017  17:45:56.448013	1.302944E-1	3.019406E-3	3.969758E-3	4.672782E-3	5.754097E-3	2.523353E-3	9.289299E-4	3.669785E-3
10/19/2017  17:45:56.449013	3.630522E-1	3.348549E-4	2.173442E-3	8.811845E-4	3.158833E-5	5.050131E-4	2.082941E-4	1.199185E-3
10/19/2017  17:45:56.450013	3.007872E-1	3.360931E-4	2.316677E-4	3.111021E-3	7.891724E-4	3.564792E-3	5.851706E-4	1.592558E-3
10/19/2017  17:45:56.451013	4.268890E-3	3.071169E-3	3.958948E-4	9.911171E-4	2.772629E-4	4.773175E-4	1.325572E-3	5.011346E-4
10/19/2017  17:45:56.452013	1.175591E-1	7.812564E-3	2.734626E-3	4.353782E-4	2.275967E-4	3.023593E-4	3.854691E-3	1.494247E-3
10/19/2017  17:45:56.453013	5.870824E-2	4.494053E-3	1.270177E-3	3.325645E-3	1.696612E-3	3.526239E-3	7.000708E-4	1.680799E-3
10/19/2017  17:45:56.454013	4.652280E-2	3.472130E-4	7.123192E-4	6.590959E-5	2.253435E-5	1.228185E-3	7.731378E-4	1.585243E-3
10/19/2017  17:45:56.455013	5.633665E-1	1.899983E-3	3.623666E-3	3.708125E-4	4.791781E-3	1.546267E-3	2.070541E-3	4.755333E-3
10/19/2017  17:45:56.456013	1.258770E+0	1.905404E-3	2.983948E-4	1.591316E-3	2.775992E-3	4.344963E-4	6.329689E-4	7.271647E-3
10/19/2017  17:45:56.457013	1.062076E+0	2.590191E-3	4.556655E-3	3.582076E-3	7.495050E-5	3.206999E-3	2.968764E-3	3.020706E-4
10/19/2017  17:45:56.458013	2.019330E-1	4.673902E-3	2.160706E-3	5.974589E-3	2.112054E-3	5.201440E-3	1.854105E-5	2.432860E-3
10/19/2017  17:45:56.459013	2.263084E-1	1.366766E-3	3.769418E-3	1.680363E-3	4.172093E-4	6.896949E-4	2.245151E-3	3.670461E-4
10/19/2017  17:45:56.460013	1.832499E-1	3.670829E-3	2.661769E-3	2.081761E-3	4.319478E-3	2.798040E-3	3.718359E-3	3.178705E-3
10/19/2017  17:45:56.461013	4.593109E-3	8.553309E-4	5.941867E-3	6.563437E-3	3.177216E-4	1.412802E-3	3.237616E-3	3.991874E-3
10/19/2017  17:45:56.462013	1.608481E-2	2.179521E-3	2.394370E-3	4.044012E-3	8.455921E-4	4.472993E-3	1.868172E-3	1.188842E-3
10/19/2017  17:45:56.463013	7.396841E-1	3.607769E-3	5.305721E-3	6.778975E-3	2.109433E-3	2.281628E-3	6.738685E-3	4.160504E-4
10/19/2017  17:45:56.464013	1.602879E+0	3.239237E-3	1.565314E-3	2.820729E-3	6.768242E-4	6.429438E-4	1.114406E-3	2.233065E-3
10/19/2017  17:45:56.465013	1.805648E+0	2.277222E-3	6.268064E-3	8.926273E-3	5.630114E-5	3.915616E-3	6.801525E-3	1.539291E-3
10/19/2017  17:45:56.466013	1.409789E+0	4.538309E-3	3.251581E-3	3.193868E-3	3.300619E-3	7.096233E-4	3.022109E-4	3.445047E-3
10/19/2017  17:45:56.467013	1.727526E-2	7.239929E-3	2.085894E-3	2.931751E-3	3.608740E-3	3.458805E-3	2.678675E-3	2.733844E-4
10/19/2017  17:45:56.468013	1.785357E+0	1.526969E-3	4.827318E-3	1.873978E-3	6.843107E-3	6.519436E-3	2.458835E-3	1.597321E-3
10/19/2017  17:45:56.469013	1.799023E+0	3.763765E-3	9.346060E-3	1.655408E-3	2.843542E-3	5.461286E-3	1.503285E-3	1.241132E-3
10/19/2017  17:45:56.470013	4.226028E-1	5.066111E-3	8.356546E-4	5.349992E-3	5.300706E-3	1.108065E-2	7.982191E-4	2.171887E-3
10/19/2017  17:45:56.471013	2.159862E-1	7.849479E-3	2.399626E-3	4.186350E-3	1.909932E-3	7.233475E-3	2.361659E-3	7.426695E-3
10/19/2017  17:45:56.472013	2.580616E-1	1.273368E-3	2.868900E-3	4.486270E-3	4.186086E-3	7.778207E-3	9.013565E-3	5.074511E-3
10/19/2017  17:45:56.473013	3.907683E-1	3.379391E-3	4.781936E-4	9.726500E-3	5.155340E-3	1.553928E-3	7.753643E-3	5.185669E-3
10/19/2017  17:45:56.474013	2.542888E-1	2.645922E-3	7.782482E-3	9.731665E-3	5.485424E-3	6.260365E-3	5.860611E-3	7.624322E-3
10/19/2017  17:45:56.475013	9.053997E-2	1.638416E-3	5.559051E-3	5.488601E-3	2.045426E-3	5.884296E-4	9.622241E-3	9.314467E-4
								
10/19/2017  17:45:56.476013	4.636194E-1	1.900419E-3	1.225644E-3	9.971158E-3	7.087720E-3	8.969595E-4	2.054197E-4	2.898895E-3
10/19/2017  17:45:56.477013	1.034374E+0	1.996738E-3	3.365916E-3	3.805687E-4	3.052382E-3	7.840857E-3	2.406451E-3	3.093809E-3
10/19/2017  17:45:56.478013	1.208470E+0	7.479424E-4	2.964831E-3	8.079928E-3	1.815956E-3	9.000800E-4	3.030263E-3	5.334299E-4
10/19/2017  17:45:56.479013	3.781504E-1	1.629815E-3	2.530066E-3	5.414672E-4	4.959052E-3	4.599882E-3	1.639254E-3	8.550896E-3
10/19/2017  17:45:56.480013	6.387921E-1	3.275871E-3	1.948291E-3	1.087640E-2	1.790221E-3	2.417710E-3	3.110900E-4	1.548071E-3
10/19/2017  17:45:56.481013	9.456673E-1	2.112399E-3	7.228700E-3	4.450480E-3	4.337033E-3	5.427053E-4	2.952070E-3	9.761787E-3
10/19/2017  17:45:56.482013	8.174681E-1	2.846517E-3	3.042273E-3	1.136216E-2	2.579572E-3	1.076972E-2	1.218449E-3	7.212823E-3
10/19/2017  17:45:56.483013	4.896963E-1	4.739568E-3	4.082632E-3	8.457695E-3	1.654623E-3	5.906495E-3	1.694775E-3	2.249929E-3
10/19/2017  17:45:56.484013	5.362971E-2	4.144621E-4	7.772226E-5	9.421595E-3	9.874909E-4	6.789917E-3	1.899675E-3	1.149209E-3
10/19/2017  17:45:56.485013	1.780439E-1	7.778552E-4	4.116145E-3	1.181914E-2	1.793257E-3	3.884427E-3	1.213822E-3	3.925820E-3
10/19/2017  17:45:56.486013	2.623014E-1	2.254118E-4	3.398303E-3	3.504735E-3	1.746325E-3	1.996642E-3	9.016955E-3	3.528676E-3
10/19/2017  17:45:56.487013	4.462872E-1	3.018961E-3	5.184200E-3	7.693597E-3	5.020091E-3	8.833890E-4	1.916058E-3	2.464363E-3
10/19/2017  17:45:56.488013	4.044243E-1	3.656796E-4	7.518892E-4	4.721044E-3	3.054328E-3	9.862651E-4	7.069103E-3	1.501363E-3
10/19/2017  17:45:56.489013	8.348137E-1	3.384530E-3	3.015996E-3	9.547837E-3	8.924494E-3	4.843266E-3	7.945113E-4	5.705429E-3
10/19/2017  17:45:56.490013	1.023587E+0	2.852667E-3	6.877336E-3	1.010302E-3	6.722607E-3	1.001738E-2	3.480475E-3	3.726662E-4
10/19/2017  17:45:56.491013	2.752069E-2	2.441213E-3	6.549432E-4	4.152479E-3	4.228537E-3	2.440667E-3	3.759010E-4	1.807818E-3
10/19/2017  17:45:56.492013	1.015165E+0	1.045419E-2	1.391450E-3	2.651417E-3	3.277122E-3	1.180075E-2	5.450020E-4	5.913433E-4
10/19/2017  17:45:56.493013	9.597717E-1	8.516730E-3	3.140764E-4	3.545183E-3	3.319220E-4	1.907191E-3	2.373459E-4	5.109024E-3
10/19/2017  17:45:56.494013	1.400778E+0	4.436982E-3	1.861344E-3	4.022004E-3	4.732488E-3	2.639322E-3	7.085603E-3	5.197559E-3
10/19/2017  17:45:56.495013	2.150363E+0	1.253117E-3	9.417269E-4	1.556057E-4	6.116985E-3	5.735882E-3	3.608859E-3	3.274269E-3
10/19/2017  17:45:56.496013	1.312379E+0	4.070663E-3	3.218332E-3	1.399267E-3	1.568806E-3	4.459296E-3	6.702140E-3	1.425603E-4
10/19/2017  17:45:56.497013	3.128772E-1	4.930822E-3	5.806026E-3	8.409488E-3	8.530269E-4	5.381244E-3	3.240185E-3	6.358752E-3
10/19/2017  17:45:56.498013	1.176838E+0	6.758089E-3	9.260781E-3	1.314132E-3	2.029714E-3	5.216978E-3	5.580715E-3	2.773439E-3
10/19/2017  17:45:56.499013	1.352141E+0	3.625210E-3	4.697960E-4	1.437134E-2	1.930765E-3	1.085541E-3	1.044114E-3	9.840957E-3
10/19/2017  17:45:56.500013	7.030228E-1	2.172983E-3	4.399001E-3	6.338950E-3	3.262645E-3	9.760910E-4	5.655472E-3	3.084429E-3
10/19/2017  17:45:56.501013	7.208735E-1	7.492209E-3	2.637982E-3	1.641796E-2	4.371509E-4	2.030233E-3	1.076103E-3	1.243762E-3
10/19/2017  17:45:56.502013	1.417928E+0	3.601016E-3	6.196436E-3	1.180873E-2	5.970150E-3	1.543397E-3	8.608842E-3	2.090260E-3
10/19/2017  17:45:56.503013	4.487347E-1	3.700037E-3	1.638885E-3	8.468776E-3	1.128060E-3	2.163591E-3	3.495443E-3	1.684129E-3
10/19/2017  17:45:56.504013	8.655898E-1	3.155249E-4	9.484713E-3	6.399319E-3	8.429809E-3	4.380658E-3	5.762920E-3	2.415224E-3
10/19/2017  17:45:56.505013	1.130280E+0	1.172385E-4	5.530514E-3	3.259821E-3	9.672969E-5	2.970335E-4	9.596912E-3	2.080280E-4
10/19/2017  17:45:56.506013	8.580620E-1	2.782082E-3	1.395385E-4	2.221605E-3	4.063480E-3	6.648780E-3	7.337306E-3	6.266154E-3
10/19/2017  17:45:56.507013	7.821373E-1	5.223756E-3	2.753384E-4	6.387418E-3	8.111052E-3	2.876359E-3	2.495654E-3	3.519079E-3
10/19/2017  17:45:56.508013	6.617120E-1	1.104913E-2	4.553334E-3	8.582162E-4	9.723936E-3	8.180039E-3	1.833401E-3	3.433919E-3
								
10/19/2017  17:45:56.509013	3.983412E-1	1.397841E-3	9.718661E-3	2.861874E-3	6.027066E-3	3.059650E-3	4.169189E-3	2.566517E-3
10/19/2017  17:45:56.510013	2.339822E-1	7.034406E-3	4.182841E-3	3.450083E-3	7.049763E-3	1.481435E-2	1.524962E-3	1.958005E-4
10/19/2017  17:45:56.511013	1.370789E-1	3.782850E-3	3.828151E-3	1.007684E-3	8.040592E-3	9.754427E-3	1.405514E-3	3.053073E-3
10/19/2017  17:45:56.512013	3.082773E-2	8.022735E-4	2.318174E-3	4.882206E-3	6.557758E-3	1.143689E-2	1.945227E-3	4.280153E-3
10/19/2017  17:45:56.513013	5.049137E-2	1.087474E-3	2.773018E-3	8.623602E-4	6.393653E-3	9.076936E-3	3.293626E-3	7.856570E-4
10/19/2017  17:45:56.514013	2.508299E-1	5.188236E-5	3.255359E-3	3.535302E-3	6.099605E-3	3.935697E-3	3.302546E-3	2.507639E-3
10/19/2017  17:45:56.515013	6.129074E-1	2.681643E-4	1.323409E-3	4.064718E-3	3.475638E-3	1.865951E-3	4.555182E-3	8.184648E-3
10/19/2017  17:45:56.516013	6.978379E-1	2.131619E-4	6.341591E-3	2.653716E-3	5.958042E-3	6.157516E-3	5.812975E-3	1.825782E-3
10/19/2017  17:45:56.517013	3.147475E-1	1.464160E-3	3.391308E-3	7.379010E-3	1.580636E-3	4.800919E-3	7.853306E-3	1.239796E-2
10/19/2017  17:45:56.518013	2.847793E-2	1.333372E-3	1.843365E-3	7.811474E-3	1.044998E-2	5.698072E-3	3.960654E-3	6.230487E-3
10/19/2017  17:45:56.519013	1.474934E-1	2.334735E-3	1.122802E-3	4.219743E-3	4.124583E-3	3.399780E-3	4.388787E-3	1.236619E-2
10/19/2017  17:45:56.520013	3.094834E-1	3.516411E-4	2.116283E-3	1.370409E-2	3.559955E-3	1.419686E-3	6.254457E-3	5.354420E-3
10/19/2017  17:45:56.521013	2.725756E-1	9.151793E-3	1.520762E-3	5.560092E-3	2.997390E-3	7.474516E-3	5.350562E-3	1.168078E-2
10/19/2017  17:45:56.522013	1.720120E-1	3.959473E-3	1.059304E-3	7.016891E-3	7.903582E-3	3.122138E-3	9.292598E-4	1.829148E-3
10/19/2017  17:45:56.523013	1.904484E-1	7.753783E-3	9.434755E-4	5.002735E-3	4.803607E-3	9.176836E-3	4.332697E-3	8.855061E-3
10/19/2017  17:45:56.524013	1.627236E-1	3.792099E-4	1.883763E-3	3.631747E-3	1.401973E-2	2.427907E-3	2.349490E-3	3.707525E-3
10/19/2017  17:45:56.525013	1.145614E-1	6.302357E-3	7.182977E-3	8.792952E-3	3.438657E-3	9.529378E-3	6.041015E-3	7.174970E-3
10/19/2017  17:45:56.526013	2.703603E-1	7.083342E-3	8.979429E-3	2.105555E-3	6.074710E-3	4.413280E-4	5.606673E-3	4.365042E-3
10/19/2017  17:45:56.527013	1.010383E-2	6.844276E-3	6.454816E-3	6.933094E-3	2.148646E-3	8.194172E-3	1.768473E-3	3.421055E-3
10/19/2017  17:45:56.528013	2.901719E-1	1.239693E-2	7.360929E-3	2.528937E-3	3.796923E-3	7.777881E-4	1.672138E-3	1.233502E-3
10/19/2017  17:45:56.529013	1.828599E-1	1.067996E-2	4.057527E-3	1.083310E-3	4.489573E-3	1.015737E-2	3.873703E-3	3.664692E-3
10/19/2017  17:45:56.530013	8.634480E-2	4.963460E-3	1.259544E-3	2.111428E-3	7.919394E-4	3.884811E-3	3.002210E-3	5.363703E-4
10/19/2017  17:45:56.531013	1.522100E-1	2.742934E-3	7.980729E-3	3.346405E-3	5.115472E-3	5.087934E-3	5.337031E-4	9.866623E-3
10/19/2017  17:45:56.532013	1.088470E-1	2.234053E-3	1.961878E-3	1.091735E-2	1.007173E-2	4.512731E-3	2.263442E-3	6.599632E-3
10/19/2017  17:45:56.533013	3.240931E-1	5.530641E-3	5.444964E-3	1.388096E-3	4.542295E-3	3.956645E-3	4.658998E-3	4.214369E-3
10/19/2017  17:45:56.534013	1.320293E-1	7.037129E-3	4.117998E-3	8.409107E-3	1.009727E-2	4.095096E-3	1.736504E-4	5.848619E-3
10/19/2017  17:45:56.535013	5.005915E-1	6.954017E-4	2.451179E-3	1.915760E-3	8.810155E-3	1.184061E-3	1.438393E-3	1.073231E-3
10/19/2017  17:45:56.536013	1.703023E-1	1.367053E-3	6.309509E-3	2.680480E-3	7.279660E-3	1.466395E-3	3.324491E-3	7.881087E-3
10/19/2017  17:45:56.537013	2.902555E-1	2.407374E-3	6.862985E-4	1.342903E-2	5.541837E-3	2.266749E-3	1.413578E-3	2.880605E-3
10/19/2017  17:45:56.538013	5.575919E-1	9.804902E-4	7.335226E-3	6.857679E-3	6.942707E-3	2.819269E-3	5.785591E-3	9.451722E-3
10/19/2017  17:45:56.539013	6.882862E-1	1.613054E-3	3.597063E-4	3.493482E-3	1.491438E-3	4.992381E-3	2.218584E-3	8.373095E-3
10/19/2017  17:45:56.540013	4.882948E-1	8.753605E-4	8.359799E-3	5.350233E-3	5.233169E-3	5.243979E-3	1.990475E-3	1.563544E-3
10/19/2017  17:45:56.541013	9.953821E-2	3.560993E-3	9.143089E-4	7.126494E-3	3.734212E-3	7.755844E-3	6.457835E-3	3.256486E-3
								
10/19/2017  17:45:56.542013	9.072479E-2	8.141083E-4	1.023369E-2	8.261545E-3	4.696862E-3	3.509957E-3	3.829813E-3	1.918560E-3
10/19/2017  17:45:56.543013	2.963834E-1	4.823657E-3	2.054808E-3	8.324525E-3	4.710634E-3	6.001519E-3	1.277083E-2	2.795921E-3
10/19/2017  17:45:56.544013	1.548525E-1	4.159127E-5	4.719543E-3	5.146724E-3	1.449479E-3	2.679414E-3	9.225602E-3	1.342766E-3
10/19/2017  17:45:56.545013	1.804489E-1	5.234434E-3	2.139676E-3	4.563096E-3	4.895409E-3	3.358942E-3	6.765646E-3	6.726389E-4
10/19/2017  17:45:56.546013	8.486117E-1	3.317213E-3	5.230830E-3	4.512204E-3	1.343137E-3	1.114555E-3	5.292310E-3	1.532318E-3
10/19/2017  17:45:56.547013	1.186440E+0	1.519128E-3	9.417785E-4	8.278782E-3	5.286767E-3	2.269887E-3	9.160982E-4	3.795752E-3
10/19/2017  17:45:56.548013	3.704120E-1	6.284528E-3	1.213727E-3	7.319536E-3	6.314934E-4	7.318846E-3	3.386061E-3	5.434010E-3
10/19/2017  17:45:56.549013	9.416649E-1	9.597118E-3	3.445261E-3	1.303409E-3	2.487652E-3	8.207791E-3	5.787812E-3	1.086636E-3
10/19/2017  17:45:56.550013	1.606323E+0	5.056804E-3	7.462991E-4	2.866882E-3	7.777912E-4	2.147558E-3	2.063728E-3	4.862522E-3
10/19/2017  17:45:56.551013	1.326732E+0	3.684485E-3	6.287950E-3	6.374205E-4	1.538843E-3	5.401464E-3	6.881443E-4	3.024690E-3
10/19/2017  17:45:56.552013	7.859344E-1	4.179924E-3	4.744689E-3	2.467663E-3	5.095582E-3	1.238420E-3	1.157668E-3	7.090210E-4
10/19/2017  17:45:56.553013	5.057899E-1	2.194499E-4	3.262751E-3	2.028935E-3	2.312902E-4	2.508015E-3	2.304005E-3	5.699323E-3
10/19/2017  17:45:56.554013	2.399576E-1	4.018569E-4	7.419669E-3	2.991470E-3	9.379917E-3	1.290063E-3	4.452079E-3	6.615209E-3
10/19/2017  17:45:56.555013	1.363448E-1	2.141863E-3	5.129069E-3	7.889667E-4	9.154209E-3	3.737529E-3	2.505997E-4	1.163793E-3
10/19/2017  17:45:56.556013	2.697148E-1	2.310731E-4	3.107428E-3	2.144549E-3	3.251885E-4	5.030978E-3	2.058719E-3	1.358046E-3
10/19/2017  17:45:56.557013	1.384730E-1	1.794819E-4	3.351320E-3	2.138776E-3	3.124716E-3	3.618532E-3	1.929185E-3	4.478001E-3
10/19/2017  17:45:56.558013	1.437482E-1	2.959074E-3	1.352278E-3	1.033691E-2	4.347440E-4	5.346629E-4	1.478853E-3	8.723836E-3
10/19/2017  17:45:56.559013	3.470114E-1	2.940418E-3	5.183778E-3	9.717770E-3	1.419984E-3	1.514981E-3	3.941406E-3	3.749838E-3
10/19/2017  17:45:56.560013	4.123611E-1	1.222986E-3	2.267654E-3	7.152140E-3	2.186141E-3	2.332123E-3	4.444750E-3	3.878348E-3
10/19/2017  17:45:56.561013	1.772072E-1	7.527013E-4	7.921565E-3	2.971814E-3	2.284812E-3	1.028429E-4	4.630826E-3	9.365857E-4
10/19/2017  17:45:56.562013	1.172923E-1	4.109935E-3	2.325014E-3	1.116058E-2	2.130886E-3	3.669103E-4	1.058096E-2	7.357014E-3
10/19/2017  17:45:56.563013	1.307032E-1	3.856505E-3	1.240049E-2	2.013594E-3	3.161541E-3	2.086982E-3	1.668788E-3	1.639852E-3
10/19/2017  17:45:56.564013	6.895998E-2	2.147897E-4	4.963793E-3	1.039780E-2	2.295031E-3	3.586965E-3	6.531221E-3	4.421861E-3
10/19/2017  17:45:56.565013	1.534974E-1	1.483971E-3	1.019242E-2	3.756905E-3	1.508365E-4	2.473293E-3	9.879730E-4	3.869619E-3
10/19/2017  17:45:56.566013	8.366908E-2	4.027960E-3	5.419500E-3	4.251206E-3	3.048713E-3	1.284535E-3	2.965073E-3	2.476352E-3
10/19/2017  17:45:56.567013	8.549507E-3	1.729192E-3	4.565036E-4	2.758879E-3	3.035176E-3	1.151932E-2	8.256451E-4	1.763643E-4
10/19/2017  17:45:56.568013	2.276365E-2	6.758344E-3	4.315770E-3	1.556639E-3	2.167814E-3	9.831640E-3	1.176258E-4	1.037455E-3
10/19/2017  17:45:56.569013	2.437059E-2	2.520894E-3	5.439602E-4	1.000089E-3	2.743445E-4	3.412854E-3	1.813177E-3	1.738574E-4
10/19/2017  17:45:56.570013	2.284712E-1	1.006073E-2	8.291749E-3	3.556108E-3	7.155268E-3	2.294980E-3	3.138527E-3	2.064393E-3
10/19/2017  17:45:56.571013	5.422201E-1	7.661496E-3	5.100028E-3	4.522250E-3	3.266044E-3	2.977274E-3	2.471657E-3	5.500606E-3
10/19/2017  17:45:56.572013	7.114296E-1	4.330059E-5	1.025246E-4	9.940560E-4	1.087104E-3	2.619800E-3	3.557797E-3	2.147271E-3
10/19/2017  17:45:56.573013	4.239922E-1	9.442671E-4	3.308147E-3	2.644641E-3	4.904346E-3	5.515321E-3	9.132462E-4	3.302937E-3
10/19/2017  17:45:56.574013	3.210285E-1	1.285015E-3	1.259448E-3	3.717449E-3	2.816907E-3	2.551712E-4	5.680409E-3	2.547216E-3
								
10/19/2017  17:45:56.575013	8.596832E-1	7.981793E-4	7.617193E-3	3.218258E-3	8.993458E-3	3.789979E-4	3.598943E-3	1.197395E-3
10/19/2017  17:45:56.576013	6.160499E-1	1.602995E-3	4.472580E-3	6.178349E-3	6.654811E-3	6.492815E-3	6.399566E-3	1.592446E-3
10/19/2017  17:45:56.577013	2.191172E-1	8.543447E-4	3.303985E-3	8.915920E-4	3.407448E-3	3.737248E-3	5.157808E-3	3.608946E-3
10/19/2017  17:45:56.578013	2.762370E-1	1.202810E-3	1.999860E-3	2.953192E-4	1.521254E-3	2.784184E-3	2.661049E-3	8.734178E-3
10/19/2017  17:45:56.579013	2.219778E-2	1.466235E-3	4.848898E-3	1.354905E-2	6.918313E-3	1.167783E-3	9.567961E-3	4.752609E-3
10/19/2017  17:45:56.580013	5.287017E-1	7.086676E-3	3.440153E-3	1.090216E-2	1.699654E-3	2.208502E-3	3.380084E-3	1.566089E-3
10/19/2017  17:45:56.581013	8.957711E-2	5.569868E-3	5.880681E-3	5.112583E-3	2.468702E-3	3.514581E-3	4.085724E-3	2.695757E-4
10/19/2017  17:45:56.582013	6.621467E-1	5.956106E-4	4.464057E-3	4.058884E-3	7.562501E-3	7.648908E-4	4.908569E-4	2.163663E-3
10/19/2017  17:45:56.583013	2.981098E-1	5.947020E-4	5.529422E-3	2.342512E-3	5.729558E-3	1.322642E-3	4.010022E-3	7.024129E-4
10/19/2017  17:45:56.584013	2.115200E+0	1.112341E-3	6.151400E-4	3.674830E-3	2.403091E-3	9.747276E-3	8.334658E-3	1.567170E-4
10/19/2017  17:45:56.585013	1.024671E+0	4.439192E-4	7.128801E-3	3.545181E-3	2.254643E-3	4.397380E-3	1.222337E-3	5.892184E-4
10/19/2017  17:45:56.586013	3.415351E+0	3.228743E-3	1.452171E-3	3.235031E-3	6.931072E-4	1.026070E-2	2.690077E-3	6.538058E-3
10/19/2017  17:45:56.587013	5.315245E+0	2.670088E-3	2.751863E-3	1.834100E-3	8.123551E-4	2.354949E-3	2.541570E-3	5.403770E-3
10/19/2017  17:45:56.588013	1.515083E+0	6.305773E-3	3.989582E-3	7.418765E-4	3.762377E-3	1.098615E-2	4.017155E-3	1.705994E-3
10/19/2017  17:45:56.589013	2.476429E+0	1.398024E-2	6.206855E-3	1.758159E-3	1.172105E-3	4.779800E-3	4.917077E-3	1.470975E-3
10/19/2017  17:45:56.590013	2.445371E+0	7.575873E-3	4.512611E-4	5.561485E-3	1.005301E-2	3.478626E-3	5.450034E-3	5.583637E-4
10/19/2017  17:45:56.591013	1.212784E+0	4.042221E-3	1.567722E-3	8.649622E-3	1.020931E-2	3.118125E-3	3.131217E-3	2.856235E-3
10/19/2017  17:45:56.592013	9.999758E-1	3.334349E-3	2.253470E-3	7.545222E-3	4.244760E-3	4.628210E-3	3.065491E-3	4.278086E-3
10/19/2017  17:45:56.593013	8.157264E-1	1.534190E-3	4.418832E-3	2.363265E-3	1.151003E-3	1.998031E-3	3.046507E-3	1.011243E-2
10/19/2017  17:45:56.594013	6.173232E-1	8.491762E-4	2.193618E-5	5.372354E-4	1.749382E-3	7.068579E-3	3.287550E-3	2.329181E-3
10/19/2017  17:45:56.595013	9.805388E-1	4.564380E-3	3.783109E-3	1.835458E-3	8.218912E-3	4.744734E-3	4.426606E-3	1.113671E-2
10/19/2017  17:45:56.596013	1.254683E+0	7.401789E-3	4.703758E-3	3.107397E-3	7.005595E-3	5.224185E-3	4.567497E-4	5.223163E-4
10/19/2017  17:45:56.597013	8.026246E-1	7.932512E-3	8.504282E-3	2.009894E-3	1.070840E-3	3.848079E-3	6.533614E-3	8.061858E-3
10/19/2017  17:45:56.598013	7.336317E-2	1.106659E-3	5.454533E-3	8.487967E-3	1.504521E-3	3.283927E-4	1.525715E-4	3.100631E-4
10/19/2017  17:45:56.599013	6.467068E-1	5.460024E-3	1.287817E-2	5.216191E-3	7.988710E-3	4.973808E-3	6.565696E-3	1.575933E-3
10/19/2017  17:45:56.600013	5.446850E-1	3.309540E-3	1.779523E-3	1.699623E-3	1.761015E-3	6.206287E-3	1.658073E-4	3.461380E-3
10/19/2017  17:45:56.601013	3.094327E-1	6.464617E-4	1.155520E-2	1.689875E-3	5.302228E-3	5.300616E-3	4.148580E-3	7.648575E-4
10/19/2017  17:45:56.602013	5.156706E-1	2.086004E-3	2.979987E-3	1.977998E-3	5.342402E-4	1.247858E-2	6.114005E-3	4.514007E-3
10/19/2017  17:45:56.603013	9.038093E-1	5.636852E-4	1.466170E-2	1.645349E-4	3.743580E-3	4.034401E-3	9.559062E-3	2.566473E-3
10/19/2017  17:45:56.604013	1.076698E+0	3.464450E-3	2.656479E-3	7.068514E-3	3.852093E-3	6.594730E-3	4.031097E-3	1.827032E-3
10/19/2017  17:45:56.605013	9.957283E-1	3.114233E-3	7.730808E-3	2.050594E-3	2.492400E-3	8.134143E-3	6.173040E-3	9.732888E-3
10/19/2017  17:45:56.606013	8.714954E-1	7.169407E-3	5.826859E-4	4.610376E-3	7.817631E-3	4.392718E-3	6.435554E-3	7.988506E-3
10/19/2017  17:45:56.607013	8.104178E-1	2.498641E-3	4.997424E-3	7.074063E-3	2.554479E-3	1.403303E-3	4.763053E-3	4.377791E-3
								
10/19/2017  17:45:56.608013	4.819446E-1	8.108095E-3	5.055657E-3	1.177056E-2	1.382660E-2	8.587466E-4	6.497853E-3	4.463857E-3
10/19/2017  17:45:56.609013	1.258351E-1	5.758117E-4	7.461484E-3	5.953383E-3	1.072412E-2	4.348263E-3	4.492284E-3	3.247709E-3
10/19/2017  17:45:56.610013	4.533767E-1	3.666958E-3	1.846305E-3	1.112186E-2	8.279220E-3	3.209458E-3	3.230226E-3	9.164105E-4
10/19/2017  17:45:56.611013	4.246077E-1	2.059978E-3	7.048621E-4	5.056998E-3	6.664290E-3	2.803058E-3	1.792158E-3	8.280384E-3
10/19/2017  17:45:56.612013	4.437036E-1	1.505990E-3	7.216838E-3	6.938891E-3	1.119258E-2	5.500377E-4	3.175962E-3	8.201734E-3
10/19/2017  17:45:56.613013	5.345765E-1	7.530567E-3	2.516090E-3	6.818194E-3	8.370189E-3	7.119771E-3	1.862564E-3	3.628589E-3
10/19/2017  17:45:56.614013	4.122247E-1	3.035632E-3	2.684101E-3	8.488897E-3	5.415087E-3	1.337882E-3	5.370982E-4	1.063426E-2
10/19/2017  17:45:56.615013	1.582433E-1	1.436046E-3	3.423322E-3	2.683348E-3	2.160801E-3	9.244624E-3	3.129535E-3	3.626327E-3
10/19/2017  17:45:56.616013	1.263364E-1	6.633673E-4	2.455131E-3	3.817450E-4	2.746253E-3	1.918886E-3	1.560081E-3	3.140631E-3
10/19/2017  17:45:56.617013	2.515823E-1	1.394554E-3	5.543956E-3	7.730862E-3	3.918197E-3	7.256664E-3	7.408139E-3	1.327181E-3
10/19/2017  17:45:56.618013	2.017709E-1	2.374798E-3	3.503876E-4	1.052235E-2	4.975886E-3	1.761725E-4	2.248000E-3	1.377288E-3
10/19/2017  17:45:56.619013	3.225858E-2	1.843593E-3	5.381653E-3	1.856771E-3	8.894565E-4	2.293150E-3	9.422918E-3	3.223690E-3
10/19/2017  17:45:56.620013	1.226376E-1	2.886019E-3	4.730989E-3	2.374344E-3	4.229398E-3	5.736648E-3	7.508135E-4	1.599719E-3
10/19/2017  17:45:56.621013	7.181325E-2	2.870657E-3	1.137153E-2	1.610378E-3	2.124060E-3	3.766629E-3	9.528375E-3	4.669638E-3
10/19/2017  17:45:56.622013	1.504711E-1	4.505488E-4	6.672780E-3	1.541441E-4	7.938886E-3	5.261660E-5	9.953158E-4	4.955196E-3
10/19/2017  17:45:56.623013	6.131818E-2	1.635394E-3	3.323167E-3	4.057714E-3	3.416742E-3	3.266273E-4	3.414159E-3	2.427687E-4
10/19/2017  17:45:56.624013	1.076453E-1	6.066032E-3	1.581985E-3	1.376526E-3	6.351178E-3	6.702392E-3	7.448346E-4	5.761654E-4
10/19/2017  17:45:56.625013	7.845782E-2	6.667191E-3	7.404482E-3	1.606352E-3	1.257687E-4	7.015363E-3	3.393560E-3	2.925737E-3
10/19/2017  17:45:56.626013	1.382194E-1	1.119821E-3	4.220224E-3	5.468860E-3	4.600746E-3	5.321378E-3	4.728931E-3	5.617896E-3
10/19/2017  17:45:56.627013	1.354750E-1	1.104800E-2	9.648143E-4	5.769372E-4	2.344280E-3	3.862296E-3	2.770473E-3	4.351166E-3
10/19/2017  17:45:56.628013	1.849764E-1	8.812014E-3	5.028669E-3	6.596148E-4	2.732994E-3	6.136476E-3	1.475508E-3	3.684684E-3
10/19/2017  17:45:56.629013	1.078891E-1	6.666344E-4	2.554948E-3	1.057941E-2	1.532623E-3	1.120295E-4	3.640369E-3	8.750728E-3
10/19/2017  17:45:56.630013	2.395362E-2	1.869749E-3	4.992644E-3	4.357950E-3	2.875784E-3	5.141760E-3	3.051141E-3	1.861628E-4
10/19/2017  17:45:56.631013	2.859278E-3	7.411453E-4	2.259148E-3	9.684322E-3	6.656240E-3	3.666987E-3	7.379960E-3	7.794990E-3
10/19/2017  17:45:56.632013	3.877854E-3	1.259108E-3	1.546877E-3	5.344314E-3	9.828306E-3	5.240471E-3	1.541340E-3	7.931177E-4
10/19/2017  17:45:56.633013	1.547431E-1	1.816848E-3	5.914740E-4	2.798847E-3	4.609963E-3	2.368178E-3	7.416214E-3	6.485179E-3
10/19/2017  17:45:56.634013	2.479173E-1	1.376895E-6	1.694302E-3	2.358048E-3	7.602569E-3	3.940622E-3	2.707946E-3	5.185894E-5
10/19/2017  17:45:56.635013	1.734313E-1	2.194628E-3	1.743475E-3	2.511703E-3	1.628751E-3	3.774348E-3	5.044378E-3	1.266133E-3
10/19/2017  17:45:56.636013	1.209433E-1	1.924010E-3	2.593046E-3	1.187386E-3	6.808934E-4	3.604476E-3	8.406996E-3	2.222822E-3
10/19/2017  17:45:56.637013	1.370530E-1	3.482191E-4	2.426047E-3	6.404556E-3	1.120963E-3	1.986505E-3	3.779531E-4	2.173010E-3
10/19/2017  17:45:56.638013	2.384841E-1	3.105747E-3	5.888354E-3	1.660355E-3	9.894407E-4	2.241771E-3	1.086784E-2	1.973910E-3
10/19/2017  17:45:56.639013	5.366248E-1	3.306273E-4	9.265527E-4	1.930083E-4	4.110083E-3	3.481724E-3	3.729817E-3	1.391083E-3
10/19/2017  17:45:56.640013	6.042383E-1	3.571812E-3	2.634474E-3	6.046823E-3	2.857394E-3	2.388498E-3	6.617609E-3	3.689818E-3
								
10/19/2017  17:45:56.641013	1.299227E-1	1.903267E-3	3.966865E-3	2.709285E-3	7.767085E-3	4.463931E-6	2.574258E-3	1.282660E-3
10/19/2017  17:45:56.642013	9.909766E-1	1.498319E-3	8.691856E-3	3.606148E-3	3.803879E-3	1.550648E-3	8.948750E-4	9.242801E-4
10/19/2017  17:45:56.643013	9.166857E-1	2.243646E-3	1.542886E-3	5.652840E-4	5.573723E-3	6.695633E-3	1.399256E-4	3.260523E-3
10/19/2017  17:45:56.644013	3.516075E-1	6.639463E-3	4.460515E-3	2.414137E-3	1.011195E-3	4.604291E-3	2.050614E-3	1.233919E-3
10/19/2017  17:45:56.645013	2.524696E-1	7.816682E-3	2.120445E-3	3.927018E-3	6.554218E-3	2.497641E-3	5.013943E-4	1.875868E-3
10/19/2017  17:45:56.646013	3.386545E-1	5.482493E-3	8.740027E-4	9.463662E-3	7.243994E-4	2.326528E-4	1.487144E-3	9.209474E-5
10/19/2017  17:45:56.647013	3.803654E-2	5.832195E-3	4.418962E-3	8.682003E-3	6.721240E-3	5.692445E-3	1.713877E-3	8.092642E-3
10/19/2017  17:45:56.648013	3.876136E-1	3.260763E-4	8.637253E-5	7.856710E-4	6.073281E-3	4.163681E-3	1.884188E-3	4.087103E-3
10/19/2017  17:45:56.649013	6.630420E-1	3.234817E-3	2.813065E-4	4.020289E-3	8.023521E-4	2.078349E-3	1.403281E-3	3.553601E-3
10/19/2017  17:45:56.650013	8.420627E-1	3.733043E-3	4.503989E-3	1.258389E-4	3.999504E-3	3.873057E-3	3.191101E-3	8.969590E-4
10/19/2017  17:45:56.651013	7.690484E-1	1.445136E-3	3.655088E-4	8.628349E-4	1.708488E-3	4.523865E-4	1.258759E-3	2.083500E-3
10/19/2017  17:45:56.652013	4.799915E-1	2.727943E-3	9.711704E-4	7.132146E-3	7.926367E-4	2.920873E-4	2.943439E-3	1.551230E-3
10/19/2017  17:45:56.653013	3.240344E-1	5.995824E-4	2.240158E-3	5.282617E-3	1.113976E-3	4.530792E-3	8.868560E-4	5.380211E-4
10/19/2017  17:45:56.654013	1.023557E-1	2.940510E-3	6.114673E-4	2.703800E-3	4.262761E-3	3.099069E-3	7.584775E-3	4.575398E-3
10/19/2017  17:45:56.655013	4.241284E-1	1.957713E-3	2.589967E-3	8.310832E-3	2.192325E-3	2.524809E-3	1.272977E-3	5.682555E-3
10/19/2017  17:45:56.656013	6.899396E-1	2.527556E-3	2.084465E-5	7.059387E-3	3.436059E-3	5.017724E-3	4.851250E-3	6.844923E-3
10/19/2017  17:45:56.657013	4.549710E-1	1.842530E-3	7.492285E-4	1.173290E-3	2.396347E-3	1.871222E-3	3.155684E-4	8.165610E-3
10/19/2017  17:45:56.658013	1.955577E-1	3.714288E-3	3.212646E-6	2.066050E-3	1.951736E-3	5.290102E-3	1.101265E-4	2.541503E-3
10/19/2017  17:45:56.659013	7.594220E-2	4.747745E-3	3.790936E-3	2.030886E-3	2.912949E-3	2.700770E-3	7.384316E-4	1.233744E-3
10/19/2017  17:45:56.660013	1.128768E-1	9.180522E-4	2.277735E-3	3.099391E-3	4.484766E-4	2.811504E-4	1.776991E-3	1.576331E-4
10/19/2017  17:45:56.661013	2.825416E-1	5.186737E-3	1.530624E-3	1.055933E-3	1.183156E-3	5.415076E-3	3.095426E-3	6.335531E-3
10/19/2017  17:45:56.662013	2.500999E-1	4.072853E-4	3.688146E-3	3.050824E-3	2.036136E-3	3.181944E-3	5.743084E-3	3.519904E-3
10/19/2017  17:45:56.663013	9.584930E-2	8.410421E-3	4.187617E-3	4.406367E-3	8.144207E-4	5.124434E-3	8.926280E-4	6.900507E-4
10/19/2017  17:45:56.664013	1.683678E-1	5.643894E-3	1.838896E-3	1.218739E-3	1.286904E-3	1.773927E-3	1.143908E-3	3.969263E-4
10/19/2017  17:45:56.665013	2.411840E-1	2.247642E-3	1.283490E-3	2.782178E-3	3.526946E-3	7.348848E-4	2.850819E-3	2.981127E-3
10/19/2017  17:45:56.666013	4.461825E-2	1.508696E-3	3.118593E-3	7.005698E-3	5.163833E-3	6.987871E-6	8.690574E-4	2.815126E-3
10/19/2017  17:45:56.667013	8.979059E-2	8.600841E-3	2.137707E-3	8.140924E-3	6.072370E-3	5.273624E-3	1.331166E-4	3.786906E-3
10/19/2017  17:45:56.668013	2.270522E-1	5.400495E-3	5.774816E-4	6.925739E-3	6.704267E-3	5.435936E-4	3.247680E-4	1.285953E-3
10/19/2017  17:45:56.669013	6.288154E-1	5.762631E-4	4.108661E-4	1.816880E-3	7.077982E-3	9.607918E-4	2.599570E-3	3.702597E-3
10/19/2017  17:45:56.670013	2.619353E-1	5.726498E-3	3.834760E-3	4.385703E-3	7.038827E-3	6.573073E-3	2.774971E-4	5.493796E-4
10/19/2017  17:45:56.671013	7.403258E-1	7.802538E-3	4.282761E-3	7.488195E-3	2.237741E-3	5.910130E-3	2.197795E-3	2.045127E-3
10/19/2017  17:45:56.672013	1.077942E+0	1.562082E-3	2.420670E-4	8.747058E-3	1.967082E-4	1.666416E-3	5.378869E-3	9.801711E-4
10/19/2017  17:45:56.673013	4.883113E-1	4.407041E-3	1.044694E-4	5.024687E-3	2.836904E-3	3.447455E-3	7.664894E-3	5.789911E-3
								
10/19/2017  17:45:56.674013	2.269991E-1	2.561537E-3	5.912989E-3	2.213734E-3	2.950872E-3	1.077034E-3	1.370812E-3	3.614235E-3
10/19/2017  17:45:56.675013	4.005055E-1	5.775044E-3	6.153089E-3	2.342255E-3	2.240103E-3	2.072262E-3	2.591534E-3	4.326866E-3
10/19/2017  17:45:56.676013	6.637158E-2	1.295384E-3	1.392288E-3	1.912131E-3	1.399871E-4	4.234548E-3	1.134150E-3	2.019606E-3
10/19/2017  17:45:56.677013	1.439384E-1	8.396153E-3	2.446652E-4	1.696365E-4	4.633575E-3	2.262731E-3	3.740825E-3	1.305654E-3
10/19/2017  17:45:56.678013	3.975585E-1	2.960229E-3	1.812428E-3	2.983743E-3	7.227909E-4	9.456163E-3	5.198163E-3	2.081170E-3
10/19/2017  17:45:56.679013	4.185182E-1	3.836583E-3	4.527171E-3	2.496956E-3	5.476688E-3	1.169572E-3	1.025995E-3	2.384125E-3
10/19/2017  17:45:56.680013	5.544084E-1	1.630410E-3	3.950495E-3	4.931284E-3	1.066554E-3	4.946317E-3	4.978032E-4	1.811536E-3
10/19/2017  17:45:56.681013	1.039034E+0	1.896438E-3	5.785501E-3	8.166685E-4	6.764058E-4	6.153834E-3	4.505124E-4	3.186897E-3
10/19/2017  17:45:56.682013	4.535369E-1	9.770245E-3	9.871421E-3	2.569997E-3	7.054310E-3	6.350255E-3	6.265253E-3	5.973319E-4
10/19/2017  17:45:56.683013	1.281591E-1	1.930988E-4	2.146313E-4	8.279556E-3	5.997553E-4	7.616826E-3	3.627544E-3	5.875088E-4
10/19/2017  17:45:56.684013	4.022218E-1	7.729024E-3	3.331714E-3	2.096659E-3	3.649134E-3	3.618937E-3	4.830220E-3	7.168547E-3
10/19/2017  17:45:56.685013	1.421727E-1	2.248310E-3	6.994755E-3	9.020654E-3	3.755192E-3	8.146952E-3	6.900094E-5	5.010872E-3
10/19/2017  17:45:56.686013	5.186784E-2	8.788822E-3	8.717062E-3	5.314282E-5	1.762338E-3	2.724931E-3	2.736828E-3	6.877467E-3
10/19/2017  17:45:56.687013	6.152087E-1	3.420261E-3	9.686538E-4	3.994513E-3	1.275204E-2	3.811485E-3	4.762941E-3	5.628896E-3
10/19/2017  17:45:56.688013	6.961352E-2	1.981963E-4	3.363608E-3	1.467727E-3	6.929127E-3	3.045373E-4	1.650133E-3	6.780399E-3
10/19/2017  17:45:56.689013	2.124518E+0	4.092296E-4	6.355959E-4	1.506473E-3	3.472859E-3	9.213106E-4	4.076693E-3	4.283555E-3
10/19/2017  17:45:56.690013	2.475898E+0	5.373909E-4	5.607506E-4	3.354324E-3	5.792000E-3	3.532550E-3	4.388714E-3	6.461903E-3
10/19/2017  17:45:56.691013	3.023874E-1	2.569784E-3	2.488072E-3	4.908482E-4	6.170162E-3	2.785558E-3	5.298252E-3	4.609794E-3
10/19/2017  17:45:56.692013	1.031641E+0	7.973269E-4	2.636718E-3	7.305101E-3	7.634210E-3	5.385231E-3	5.975361E-3	2.834062E-3
10/19/2017  17:45:56.693013	7.461098E-1	6.050312E-3	5.703651E-3	3.415038E-3	5.153797E-3	2.705200E-3	2.619306E-3	7.320602E-3
10/19/2017  17:45:56.694013	6.223820E-1	6.106658E-3	1.599370E-3	4.579655E-5	1.461261E-3	4.999438E-3	8.336419E-3	3.425065E-4
10/19/2017  17:45:56.695013	6.507327E-1	2.240438E-4	2.883048E-3	8.452964E-4	4.057883E-3	2.888015E-3	4.803139E-3	7.231147E-3
10/19/2017  17:45:56.696013	2.449718E-1	1.988248E-3	6.704520E-3	4.288286E-3	1.698006E-3	4.951391E-3	5.098337E-3	1.097092E-3
10/19/2017  17:45:56.697013	5.048029E-2	5.969755E-3	3.826758E-3	2.319010E-3	1.544906E-3	1.418282E-3	8.099882E-3	3.990955E-3
10/19/2017  17:45:56.698013	4.375518E-1	2.612904E-3	7.351219E-3	7.607537E-3	7.876946E-4	3.753899E-3	5.130612E-3	4.782034E-3
10/19/2017  17:45:56.699013	1.123052E+0	3.283581E-3	4.321374E-3	1.687643E-3	5.805374E-3	1.622912E-4	2.524013E-3	1.725074E-3
10/19/2017  17:45:56.700013	1.431469E+0	6.656406E-3	5.711973E-4	8.413701E-3	6.298518E-3	1.924025E-3	1.748006E-3	5.712759E-3
10/19/2017  17:45:56.701013	4.335067E-1	2.164560E-3	3.457346E-3	1.404752E-3	3.591804E-3	2.757413E-3	1.831076E-4	8.483227E-4
10/19/2017  17:45:56.702013	1.233741E+0	6.188962E-3	1.842526E-3	2.158886E-3	4.146955E-3	1.492014E-4	1.015321E-3	4.161208E-3
10/19/2017  17:45:56.703013	1.809829E+0	6.898376E-3	6.147504E-5	8.209131E-3	2.713674E-3	3.897101E-3	1.857125E-3	1.340998E-3
10/19/2017  17:45:56.704013	1.379779E+0	4.746946E-3	6.242246E-3	7.085177E-3	3.988263E-3	2.826481E-3	5.377014E-3	2.049530E-3
10/19/2017  17:45:56.705013	1.070372E+0	1.349165E-2	2.933133E-3	4.582021E-3	1.159583E-2	5.102298E-3	3.366256E-3	3.182421E-3
10/19/2017  17:45:56.706013	6.649318E-1	9.705350E-3	6.065080E-3	3.326764E-3	5.544900E-3	1.575807E-3	2.385722E-3	4.014102E-3
								
10/19/2017  17:45:56.707013	1.367261E-1	2.223978E-3	6.813623E-4	9.898821E-4	2.539099E-3	7.476110E-4	1.070024E-3	4.160734E-4
10/19/2017  17:45:56.708013	6.294940E-1	3.488691E-3	6.378012E-3	8.248847E-3	2.561505E-3	4.935746E-3	1.719770E-3	3.090101E-3
10/19/2017  17:45:56.709013	5.587636E-1	5.509169E-3	3.630708E-3	5.124764E-3	4.521400E-3	5.547804E-5	1.914549E-3	7.867610E-3
10/19/2017  17:45:56.710013	4.542567E-1	2.975890E-4	6.724685E-3	3.462311E-3	5.526287E-3	2.236446E-4	4.114748E-3	2.946857E-3
10/19/2017  17:45:56.711013	5.402510E-1	2.062778E-3	5.754222E-4	1.472643E-3	1.809786E-4	1.645257E-3	3.129799E-3	1.045918E-2
10/19/2017  17:45:56.712013	5.620351E-1	6.306752E-5	1.920733E-3	8.061132E-3	2.906746E-4	6.976463E-3	1.677962E-4	8.554627E-4
10/19/2017  17:45:56.713013	3.989578E-1	8.255768E-3	9.054237E-4	3.062757E-3	5.899509E-5	6.860093E-3	6.481968E-5	6.863989E-3
10/19/2017  17:45:56.714013	1.927642E-1	1.293703E-3	9.837035E-4	3.845245E-3	1.349771E-3	4.492087E-3	4.391214E-3	4.643807E-3
10/19/2017  17:45:56.715013	7.471469E-2	8.103667E-3	1.598430E-3	4.834983E-3	2.946171E-3	5.886353E-3	8.592470E-3	3.841365E-3
10/19/2017  17:45:56.716013	6.748577E-2	1.207675E-3	1.446144E-3	6.045201E-3	6.405423E-3	1.250183E-3	8.372950E-4	6.466516E-3
10/19/2017  17:45:56.717013	9.681097E-2	8.498368E-3	2.275837E-3	6.978636E-3	2.917875E-3	1.850825E-3	5.767918E-3	1.886336E-3
10/19/2017  17:45:56.718013	8.129090E-2	8.778948E-4	1.273250E-4	3.331267E-3	8.976403E-4	4.883956E-3	2.144799E-3	2.116056E-3
10/19/2017  17:45:56.719013	2.904877E-2	1.729706E-3	6.544268E-3	1.628239E-3	3.523193E-3	5.739123E-3	9.956595E-4	3.450749E-3
10/19/2017  17:45:56.720013	2.205444E-1	5.594073E-4	2.725003E-3	4.650299E-4	9.298411E-4	2.119832E-3	4.689613E-3	3.398217E-4
10/19/2017  17:45:56.721013	2.855633E-1	9.763294E-4	4.181113E-3	4.596708E-3	7.125488E-3	4.388043E-3	2.194675E-3	7.585861E-3
10/19/2017  17:45:56.722013	1.441794E-1	5.407356E-3	9.459690E-4	2.500341E-3	7.697184E-4	7.816535E-4	4.532678E-3	3.143514E-3
10/19/2017  17:45:56.723013	6.661408E-2	9.975059E-3	5.809792E-3	4.086090E-3	4.289754E-3	2.384464E-3	4.822851E-3	5.356661E-3
10/19/2017  17:45:56.724013	1.234616E-1	3.226945E-3	2.992305E-3	5.662874E-4	7.365379E-3	2.927218E-3	1.659570E-3	3.313682E-3
10/19/2017  17:45:56.725013	1.179643E-1	9.806080E-3	2.500806E-3	4.518759E-3	4.108033E-3	1.763459E-3	1.821483E-3	1.858219E-3
10/19/2017  17:45:56.726013	5.557657E-2	1.944639E-3	1.005510E-3	3.642358E-3	9.598331E-3	6.130377E-4	7.464885E-4	2.464393E-4
10/19/2017  17:45:56.727013	1.940689E-3	3.942197E-3	8.882618E-3	3.735402E-3	6.638880E-4	1.671076E-3	3.640009E-3	2.415063E-3
10/19/2017  17:45:56.728013	5.577654E-2	6.636646E-3	4.597493E-3	6.073557E-3	1.095074E-2	3.647081E-3	4.254816E-3	1.840127E-3
10/19/2017  17:45:56.729013	5.503914E-2	5.676257E-3	6.299631E-3	2.916864E-3	8.078847E-4	3.557246E-3	9.840874E-4	2.623368E-4
10/19/2017  17:45:56.730013	3.807294E-1	2.485741E-3	2.961384E-3	6.207616E-3	4.892705E-3	4.581005E-3	3.902847E-3	3.528216E-3
10/19/2017  17:45:56.731013	5.658562E-1	3.182892E-3	7.021231E-3	2.976950E-3	1.994838E-3	5.440186E-3	7.483087E-4	5.306346E-3
10/19/2017  17:45:56.732013	5.950683E-1	3.128363E-3	6.364503E-3	5.888851E-3	1.021591E-3	6.587403E-4	8.906884E-4	1.251040E-3
10/19/2017  17:45:56.733013	8.429717E-1	2.507561E-3	4.112163E-4	1.011926E-2	1.803922E-3	1.139625E-3	5.201901E-3	5.336516E-3
10/19/2017  17:45:56.734013	9.464183E-1	5.281454E-3	2.914926E-3	6.960462E-3	1.683656E-3	1.159296E-3	1.220059E-3	2.154380E-3
10/19/2017  17:45:56.735013	9.027786E-2	7.023474E-3	1.665092E-3	8.339407E-4	1.006687E-3	3.904155E-3	5.350920E-3	6.960483E-3
10/19/2017  17:45:56.736013	1.206992E+0	1.925074E-3	7.383613E-3	2.914923E-4	2.144625E-3	3.107077E-3	4.819121E-4	2.758509E-4
10/19/2017  17:45:56.737013	1.480546E+0	3.813618E-3	3.705311E-3	1.520211E-3	8.948842E-4	1.862242E-3	6.343586E-3	7.182580E-3
10/19/2017  17:45:56.738013	7.763339E-1	3.470980E-3	4.658126E-3	2.315386E-3	6.384975E-5	3.762666E-3	1.601568E-3	2.522031E-3
10/19/2017  17:45:56.739013	3.672444E-1	6.791253E-3	5.873533E-3	1.433941E-3	3.007352E-3	9.604825E-3	5.472469E-3	6.426112E-3
								
10/19/2017  17:45:56.740013	4.650141E-1	7.556530E-4	4.272990E-3	3.770359E-3	7.322878E-3	1.747132E-3	2.277288E-3	4.388485E-3
10/19/2017  17:45:56.741013	3.331521E-1	8.015334E-3	4.322577E-3	9.102728E-3	5.424233E-3	1.252141E-2	1.448994E-3	4.295299E-3
10/19/2017  17:45:56.742013	2.229647E-1	5.385100E-3	2.090741E-3	5.979981E-3	4.824847E-3	3.284839E-3	5.469041E-3	3.640818E-3
10/19/2017  17:45:56.743013	5.615737E-1	4.802773E-3	1.403485E-3	3.229492E-4	8.036766E-3	8.314845E-3	8.705096E-4	9.716260E-4
10/19/2017  17:45:56.744013	2.629811E-1	1.509230E-3	2.461341E-3	2.197820E-3	4.622155E-3	2.702160E-3	2.263958E-3	8.150677E-4
10/19/2017  17:45:56.745013	1.043764E-1	9.069658E-3	4.303029E-3	5.599093E-3	1.141080E-2	6.572236E-3	5.444333E-3	2.001244E-4
10/19/2017  17:45:56.746013	4.699235E-2	4.179077E-3	9.869019E-3	1.315157E-3	7.585211E-4	3.105452E-3	3.387933E-3	2.609227E-3
10/19/2017  17:45:56.747013	8.376799E-2	3.910456E-3	9.771846E-5	2.566021E-3	8.854647E-3	8.113024E-4	5.312439E-3	4.591080E-3
10/19/2017  17:45:56.748013	6.118995E-2	1.891290E-3	6.919353E-3	7.872982E-3	2.482779E-3	3.494514E-3	7.263505E-4	8.513157E-3
10/19/2017  17:45:56.749013	3.409021E-1	4.113417E-3	2.839366E-3	4.746877E-3	3.862770E-4	2.923039E-3	3.433377E-3	3.729986E-3
10/19/2017  17:45:56.750013	3.974899E-1	2.230065E-3	5.976651E-3	9.389988E-3	2.889465E-3	1.902056E-3	2.789589E-3	8.573353E-3
10/19/2017  17:45:56.751013	1.180109E-1	6.890124E-4	2.193908E-3	2.933220E-3	3.720998E-3	1.801429E-3	3.333044E-3	2.468041E-3
10/19/2017  17:45:56.752013	1.828934E-1	4.968323E-5	9.246010E-4	1.119826E-2	5.766505E-3	3.251163E-3	1.415427E-3	2.746443E-3
10/19/2017  17:45:56.753013	2.314388E-1	8.530303E-3	2.741521E-3	1.239443E-3	6.032655E-3	5.484611E-3	1.434722E-3	7.861333E-3
10/19/2017  17:45:56.754013	9.447394E-2	6.007416E-3	1.781158E-3	9.776768E-3	2.625364E-3	3.384908E-4	1.350811E-3	4.414387E-3
10/19/2017  17:45:56.755013	1.438090E-1	5.948787E-3	1.300827E-3	1.052949E-3	5.801948E-3	5.780094E-3	2.832295E-3	6.075031E-3
10/19/2017  17:45:56.756013	5.779779E-1	1.831559E-3	5.329668E-3	4.306109E-3	4.248184E-3	1.984983E-3	9.606482E-4	2.582123E-3
10/19/2017  17:45:56.757013	8.425970E-1	9.310537E-3	7.004724E-3	8.135464E-3	5.459206E-3	1.294997E-2	3.140977E-3	4.448569E-3
10/19/2017  17:45:56.758013	4.699100E-1	5.447261E-3	1.324284E-2	6.680347E-3	6.456887E-3	5.757207E-3	4.863232E-3	8.999078E-4
10/19/2017  17:45:56.759013	4.928175E-3	4.805017E-3	1.050284E-4	3.350797E-3	7.522511E-3	1.055361E-2	8.474565E-5	6.849373E-3
10/19/2017  17:45:56.760013	6.920103E-2	7.121426E-3	6.865886E-3	1.665156E-3	2.167539E-3	7.141590E-3	6.346792E-3	5.573700E-4
10/19/2017  17:45:56.761013	2.350302E-1	5.103353E-5	1.601731E-3	9.164007E-3	2.442388E-3	8.176271E-3	2.456176E-3	7.917340E-3
10/19/2017  17:45:56.762013	3.567076E-1	8.084643E-3	6.756143E-3	4.911187E-3	3.592152E-3	6.939464E-3	5.013641E-3	8.577478E-4
10/19/2017  17:45:56.763013	1.067259E+0	2.823049E-3	5.866845E-4	7.019757E-4	5.406746E-3	3.292497E-3	3.120169E-3	7.408900E-3
10/19/2017  17:45:56.764013	5.488594E-1	8.361611E-3	5.806089E-3	6.143909E-4	7.891979E-3	2.451231E-3	1.230548E-3	3.554030E-3
10/19/2017  17:45:56.765013	6.629928E-1	6.548628E-3	4.555467E-3	4.853108E-3	6.410921E-3	4.854106E-6	1.566956E-3	5.444640E-3
10/19/2017  17:45:56.766013	9.113646E-1	1.659566E-3	6.542833E-4	1.329938E-2	4.708569E-3	4.525356E-3	2.831333E-3	9.213771E-3
10/19/2017  17:45:56.767013	1.744183E-1	3.301017E-3	1.627711E-4	1.019489E-2	8.722533E-3	4.072741E-3	2.563401E-3	6.785033E-3
10/19/2017  17:45:56.768013	3.470965E-1	6.730911E-4	4.748244E-4	2.881694E-3	4.416628E-5	2.492735E-4	1.631796E-3	9.981137E-3
10/19/2017  17:45:56.769013	3.406436E-1	2.436598E-4	7.317401E-4	3.645866E-3	3.672529E-3	2.638707E-3	4.517121E-3	5.264565E-3
10/19/2017  17:45:56.770013	3.342064E-1	6.300452E-3	1.780410E-3	6.774596E-3	3.651742E-3	4.789984E-3	1.095133E-3	9.763428E-3
10/19/2017  17:45:56.771013	4.590182E-1	1.728225E-3	6.182147E-3	3.177867E-3	9.401467E-3	3.624094E-5	4.489028E-3	3.879596E-3
10/19/2017  17:45:56.772013	3.996305E-1	1.068129E-2	2.756698E-3	8.959776E-3	6.210307E-3	1.338124E-3	3.562301E-3	5.435557E-3
								
10/19/2017  17:45:56.773013	2.336866E-1	6.765224E-3	1.916206E-3	7.150973E-3	1.485080E-3	6.148593E-4	5.294321E-3	1.637174E-3
10/19/2017  17:45:56.774013	2.246699E-1	3.691196E-3	2.656413E-3	1.260046E-3	5.947283E-3	2.016139E-3	5.019783E-3	3.291661E-3
10/19/2017  17:45:56.775013	1.512909E-1	1.108513E-3	2.974893E-3	7.072304E-3	2.613101E-3	3.223745E-3	5.541461E-3	7.131648E-3
10/19/2017  17:45:56.776013	1.484708E-1	6.145299E-3	6.199489E-3	8.724111E-3	2.297327E-3	1.552279E-3	1.098359E-2	5.844424E-3
10/19/2017  17:45:56.777013	3.214176E-1	3.218746E-3	5.643031E-3	3.792469E-3	3.032923E-4	5.631271E-3	2.396515E-3	3.724614E-3
10/19/2017  17:45:56.778013	8.971848E-2	3.828355E-3	3.272294E-3	7.776005E-3	1.111035E-3	3.691442E-3	5.305017E-3	5.323338E-4
10/19/2017  17:45:56.779013	2.399332E-1	9.523891E-3	1.060395E-3	1.868693E-3	1.337655E-3	6.113989E-3	1.968489E-3	6.785613E-3
10/19/2017  17:45:56.780013	1.967329E-1	8.400891E-3	7.204467E-3	1.567072E-3	2.877887E-3	1.271298E-2	4.427939E-3	2.002959E-3
10/19/2017  17:45:56.781013	1.175911E-1	3.513671E-3	3.646783E-3	1.342109E-2	5.451353E-3	1.793078E-3	2.573937E-3	6.968015E-3
10/19/2017  17:45:56.782013	3.461080E-1	3.727253E-3	5.323859E-3	1.515170E-3	9.334742E-4	6.995076E-3	5.297174E-3	3.454666E-3
10/19/2017  17:45:56.783013	5.186811E-1	1.699871E-5	1.542113E-3	1.696268E-2	8.060822E-4	3.223562E-3	5.429286E-3	8.802398E-3
10/19/2017  17:45:56.784013	3.789815E-1	3.170415E-3	7.797571E-3	3.971128E-3	6.510923E-3	7.042930E-3	3.944357E-3	4.878734E-4
10/19/2017  17:45:56.785013	5.047791E-1	6.312742E-3	5.050120E-3	1.403662E-2	1.229494E-3	3.963494E-3	5.984081E-3	6.261202E-3
10/19/2017  17:45:56.786013	9.051878E-1	4.511431E-3	1.173303E-3	2.662648E-3	8.938953E-3	7.678152E-3	3.406572E-3	2.475144E-3
10/19/2017  17:45:56.787013	5.063960E-1	1.326106E-3	8.717047E-4	6.887083E-3	3.724302E-3	2.482636E-3	6.031365E-3	3.401939E-3
10/19/2017  17:45:56.788013	1.881395E+0	1.713838E-4	1.203667E-3	6.520921E-3	2.397033E-3	1.979478E-4	1.683998E-3	3.175758E-3
10/19/2017  17:45:56.789013	9.941710E-1	1.141865E-3	2.789494E-3	1.403181E-2	1.340903E-3	3.204559E-4	3.824880E-3	1.576325E-2
10/19/2017  17:45:56.790013	7.947911E-1	1.275879E-3	3.679275E-3	4.443693E-3	3.010511E-3	1.477072E-3	2.307884E-3	7.747219E-3
10/19/2017  17:45:56.791013	1.085862E+0	2.429059E-3	2.403958E-3	7.928607E-3	4.283046E-3	3.132300E-3	4.524628E-3	1.256367E-2
10/19/2017  17:45:56.792013	2.326351E-1	4.475878E-3	1.760920E-4	1.148137E-2	2.284312E-3	1.980773E-3	2.526714E-3	9.501165E-3
10/19/2017  17:45:56.793013	2.652891E-1	6.257767E-4	8.853568E-4	1.519539E-3	7.397551E-3	1.957036E-3	7.727002E-3	5.972014E-3
10/19/2017  17:45:56.794013	1.124130E+0	1.970468E-3	7.566376E-3	4.283621E-3	3.298905E-4	2.720186E-3	1.961163E-3	1.151039E-3
10/19/2017  17:45:56.795013	4.233846E-1	4.900122E-3	8.404840E-3	5.382874E-3	4.588023E-3	1.084286E-3	3.593736E-3	9.768530E-3
10/19/2017  17:45:56.796013	1.881673E+0	3.202142E-3	2.211444E-3	5.420809E-3	4.071111E-3	7.770991E-4	8.057159E-4	3.413470E-3
10/19/2017  17:45:56.797013	2.507285E+0	5.084439E-3	6.708317E-3	8.022252E-3	6.876976E-3	8.676840E-3	5.587238E-4	5.494616E-3
10/19/2017  17:45:56.798013	6.623572E-1	6.345318E-4	2.057501E-3	5.045415E-3	3.813309E-3	3.463739E-3	2.519312E-3	3.923180E-3
10/19/2017  17:45:56.799013	7.208648E-1	8.798193E-3	4.126946E-3	6.944774E-3	6.874038E-3	1.089722E-2	2.196810E-3	1.725795E-3
10/19/2017  17:45:56.800013	6.919729E-1	5.927597E-3	5.070580E-3	1.775005E-3	3.054707E-4	5.987983E-3	5.277499E-4	2.210157E-3
10/19/2017  17:45:56.801013	7.941788E-1	3.064864E-3	5.831924E-3	3.302092E-3	2.060798E-3	8.225682E-3	1.888115E-4	1.271197E-3
10/19/2017  17:45:56.802013	1.049176E+0	4.424351E-3	1.652980E-3	6.018377E-3	7.799066E-4	2.347704E-3	1.703051E-3	1.445314E-3
10/19/2017  17:45:56.803013	6.948664E-1	1.729419E-4	5.095029E-4	6.918195E-3	4.093841E-4	9.361657E-3	3.702479E-4	2.912808E-3
10/19/2017  17:45:56.804013	2.446273E-1	1.951273E-4	6.551782E-3	1.084284E-3	3.235904E-3	4.385425E-3	1.977918E-3	4.423711E-4
10/19/2017  17:45:56.805013	2.579998E-1	2.804188E-3	6.631838E-3	2.146599E-3	3.386817E-5	3.176841E-3	1.257344E-3	3.514979E-4
								
10/19/2017  17:45:56.806013	3.767302E-1	9.652635E-4	7.828010E-4	7.141489E-3	6.008817E-3	1.548578E-4	3.165507E-3	9.343920E-3
10/19/2017  17:45:56.807013	2.222534E-1	9.697895E-4	2.887887E-3	2.737410E-4	5.928512E-3	1.659554E-3	1.111712E-4	6.070853E-3
10/19/2017  17:45:56.808013	2.233488E-2	2.194965E-3	4.975054E-3	1.252066E-2	3.751289E-3	1.905153E-3	3.799834E-4	8.819446E-3
10/19/2017  17:45:56.809013	1.427689E-1	1.196312E-3	8.402645E-3	1.800183E-2	8.940230E-4	1.847111E-3	2.607782E-3	6.678142E-3
10/19/2017  17:45:56.810013	2.288553E-1	4.545983E-3	5.909831E-3	5.352864E-3	8.638823E-3	3.880762E-3	1.570051E-3	5.680606E-3
10/19/2017  17:45:56.811013	2.919834E-1	1.675495E-3	4.776857E-3	6.309100E-3	1.077564E-2	6.396659E-3	2.355035E-3	1.667798E-3
10/19/2017  17:45:56.812013	3.552913E-2	1.332692E-2	8.381404E-3	1.049353E-3	4.650218E-3	1.017882E-2	4.425305E-3	6.118138E-3
10/19/2017  17:45:56.813013	5.777649E-1	3.792960E-3	1.469485E-3	3.539868E-3	1.104682E-2	2.094313E-3	1.829192E-3	4.665360E-4
10/19/2017  17:45:56.814013	8.089714E-1	1.187163E-2	5.397547E-3	1.294070E-2	3.826542E-3	9.257338E-3	8.903240E-3	4.105817E-3
10/19/2017  17:45:56.815013	1.344001E-1	2.632414E-3	3.408475E-3	4.148110E-3	1.143447E-2	3.322413E-3	8.263301E-3	2.498929E-3
10/19/2017  17:45:56.816013	8.444709E-1	6.767694E-3	3.691754E-3	6.023138E-3	6.666486E-4	1.492351E-2	7.649367E-4	6.910222E-4
10/19/2017  17:45:56.817013	1.310101E+0	5.835388E-3	2.834765E-3	7.815286E-4	5.788673E-3	2.141276E-3	3.550250E-4	3.595803E-3
10/19/2017  17:45:56.818013	9.274347E-1	6.566409E-3	2.345152E-3	2.498612E-3	1.932436E-3	1.135194E-2	5.246877E-3	4.369646E-3
10/19/2017  17:45:56.819013	1.497421E-1	1.024075E-2	4.269895E-3	1.285503E-2	5.562729E-3	5.629860E-4	1.587806E-3	7.476012E-3
10/19/2017  17:45:56.820013	4.970009E-1	6.504122E-3	5.753918E-3	3.517469E-3	3.004043E-3	6.269904E-3	3.901011E-3	1.377346E-3
10/19/2017  17:45:56.821013	2.011340E+0	9.630484E-3	3.113614E-3	1.282295E-2	3.887620E-3	5.190432E-3	1.035983E-3	3.061364E-3
10/19/2017  17:45:56.822013	2.016632E+0	4.471983E-3	8.407558E-3	2.775973E-3	2.179070E-3	6.027095E-3	3.148669E-3	5.753861E-4
10/19/2017  17:45:56.823013	1.953693E-1	5.337357E-3	2.694299E-3	1.354038E-2	6.291469E-3	3.260410E-3	1.763615E-3	3.394723E-3
10/19/2017  17:45:56.824013	1.899228E+0	9.062934E-4	7.056042E-3	6.574570E-3	1.051555E-2	6.083613E-5	3.532980E-3	6.781014E-3
10/19/2017  17:45:56.825013	1.903479E+0	4.277015E-3	1.240890E-3	5.973157E-3	4.974037E-3	5.624863E-3	5.184913E-3	2.088523E-3
10/19/2017  17:45:56.826013	1.420773E+0	2.527092E-5	1.586332E-3	5.275131E-3	7.230286E-3	2.491642E-3	2.660040E-3	2.036299E-3
10/19/2017  17:45:56.827013	9.346678E-1	2.316090E-3	6.579097E-3	2.058257E-3	5.651220E-3	3.040099E-3	4.156747E-3	1.678614E-3
10/19/2017  17:45:56.828013	3.584692E-1	2.943594E-3	4.388436E-3	4.219579E-3	1.416934E-3	5.615463E-3	3.197903E-3	2.590595E-3
10/19/2017  17:45:56.829013	4.763477E-2	5.573763E-3	4.655826E-3	3.128568E-3	8.004319E-3	4.091086E-3	3.924952E-3	7.983214E-3
10/19/2017  17:45:56.830013	3.380575E-3	5.974718E-3	2.664557E-3	1.047937E-3	4.671277E-5	1.243710E-2	1.913484E-3	1.105463E-2
10/19/2017  17:45:56.831013	6.791619E-2	5.828627E-3	1.687942E-3	2.381301E-3	4.874511E-3	1.822560E-3	3.858402E-3	6.491668E-4
10/19/2017  17:45:56.832013	1.160725E-1	6.947752E-3	6.905188E-3	6.754944E-3	5.361624E-3	5.216332E-3	2.312540E-3	3.954097E-3
10/19/2017  17:45:56.833013	2.775462E-2	3.637519E-3	1.216931E-3	2.732327E-3	6.549913E-3	5.503448E-3	3.577845E-3	2.359581E-3
10/19/2017  17:45:56.834013	2.250687E-1	1.886973E-3	6.205281E-3	4.845599E-4	3.718133E-3	5.686745E-3	7.620384E-3	1.125121E-3
10/19/2017  17:45:56.835013	4.405560E-1	4.581020E-3	1.765092E-3	4.340777E-4	2.505263E-3	8.168981E-3	5.646601E-3	3.450209E-4
10/19/2017  17:45:56.836013	7.910648E-3	3.754950E-3	5.620982E-3	5.066993E-3	3.656785E-3	5.495616E-3	4.894739E-3	4.024199E-3
10/19/2017  17:45:56.837013	8.810536E-1	9.698794E-3	7.723223E-3	3.676798E-3	6.864490E-4	7.741952E-3	8.714886E-4	3.922857E-5
10/19/2017  17:45:56.838013	8.989321E-1	3.750014E-3	1.153200E-2	4.577733E-3	8.958527E-4	2.864155E-3	6.314552E-3	8.130259E-3
								
10/19/2017  17:45:56.839013	2.339864E-1	1.199580E-3	1.486319E-3	5.007576E-4	2.696969E-3	7.304232E-3	4.247668E-3	3.234380E-3
10/19/2017  17:45:56.840013	2.125109E-1	1.022440E-3	4.340450E-3	5.243624E-3	7.757743E-3	7.984551E-4	7.691569E-3	2.625490E-3
10/19/2017  17:45:56.841013	5.260619E-1	8.148333E-3	2.939873E-3	1.251916E-3	1.046460E-2	4.343989E-3	5.168059E-4	5.301544E-3
10/19/2017  17:45:56.842013	1.940162E-1	7.910761E-3	1.572872E-3	3.850499E-4	7.411694E-3	1.307384E-3	4.425745E-4	7.882143E-3
10/19/2017  17:45:56.843013	2.413611E-1	8.340189E-4	1.377467E-3	9.192305E-3	9.594503E-3	1.805978E-4	4.875835E-3	3.509300E-3
10/19/2017  17:45:56.844013	1.409926E-2	2.929155E-3	9.374467E-4	6.494488E-3	1.106234E-2	2.591365E-3	1.527452E-6	3.438347E-3
10/19/2017  17:45:56.845013	4.638800E-1	3.184496E-3	2.546177E-3	2.581670E-3	8.220193E-3	5.209112E-3	1.321044E-3	8.098803E-3
10/19/2017  17:45:56.846013	2.672933E-1	1.823796E-3	6.527005E-3	5.502576E-3	1.338229E-2	3.775589E-3	4.061459E-3	3.419800E-3
10/19/2017  17:45:56.847013	4.354282E-1	6.662386E-3	7.969123E-4	6.338925E-3	7.861873E-3	7.676457E-3	2.554687E-4	1.042957E-2
10/19/2017  17:45:56.848013	7.682899E-1	4.607371E-3	6.482037E-3	2.173702E-3	9.114508E-3	2.113265E-3	6.080061E-3	7.149261E-3
10/19/2017  17:45:56.849013	3.713365E-1	7.006575E-3	1.387428E-3	8.473868E-3	3.840127E-3	1.214741E-2	1.430241E-3	5.146788E-3
10/19/2017  17:45:56.850013	2.630162E-2	7.247327E-3	1.017602E-2	1.084800E-2	5.296447E-3	5.692514E-3	7.061863E-3	3.678175E-3
10/19/2017  17:45:56.851013	3.088367E-1	5.342404E-3	4.946723E-3	2.291243E-3	6.572725E-4	9.875560E-3	3.630461E-3	5.899573E-3
10/19/2017  17:45:56.852013	6.538176E-1	7.494680E-3	5.838091E-3	3.843942E-3	4.327258E-3	6.883033E-3	6.901296E-3	4.334874E-3
10/19/2017  17:45:56.853013	3.144264E-2	2.258589E-3	4.502215E-3	3.594127E-3	1.304164E-3	5.811228E-3	6.560028E-3	4.076896E-3
10/19/2017  17:45:56.854013	9.397446E-1	1.435305E-3	3.351096E-3	1.266006E-3	3.783401E-3	5.362154E-3	1.000669E-2	1.269978E-3
10/19/2017  17:45:56.855013	6.868020E-1	8.018363E-3	3.178381E-3	7.469626E-3	1.889925E-3	4.451421E-3	2.528019E-4	6.577961E-3
10/19/2017  17:45:56.856013	3.683880E-1	6.536830E-3	2.550254E-3	2.638315E-3	5.391445E-3	5.216629E-3	7.010235E-3	2.017660E-3
10/19/2017  17:45:56.857013	7.837166E-1	3.213105E-3	2.616218E-3	1.087033E-2	3.554853E-3	2.604511E-3	7.047989E-3	5.033871E-3
10/19/2017  17:45:56.858013	7.849590E-2	6.322320E-3	5.190829E-3	8.662450E-3	4.228281E-3	1.752241E-3	1.064628E-4	4.490461E-5
10/19/2017  17:45:56.859013	1.130889E+0	3.088623E-3	4.894543E-3	6.186697E-3	2.258948E-4	6.262465E-3	4.111789E-3	5.543498E-3
10/19/2017  17:45:56.860013	8.261590E-1	1.832532E-3	6.638328E-3	2.593155E-3	6.790902E-3	3.380270E-3	4.969862E-3	1.222451E-3
10/19/2017  17:45:56.861013	3.815166E-1	2.172313E-3	5.773002E-3	1.214746E-2	2.924506E-3	4.974907E-3	8.933790E-3	2.518821E-3
10/19/2017  17:45:56.862013	9.548949E-1	4.755832E-4	5.073676E-3	6.713977E-3	8.384278E-3	7.315598E-4	3.185964E-3	1.223774E-3
10/19/2017  17:45:56.863013	8.431168E-1	3.325276E-3	2.615094E-3	5.639678E-3	5.357651E-3	6.156927E-3	8.317609E-3	1.793205E-3
10/19/2017  17:45:56.864013	4.830233E-1	5.207804E-4	4.585515E-3	2.401727E-4	7.932657E-3	7.690244E-4	2.176744E-3	3.673975E-3
10/19/2017  17:45:56.865013	1.967352E-1	3.618248E-3	4.056711E-3	1.085780E-2	8.030285E-3	6.954840E-3	5.743727E-3	3.830361E-3
10/19/2017  17:45:56.866013	5.203966E-1	1.927872E-3	4.039653E-3	8.612266E-3	1.041784E-2	9.657123E-4	3.058691E-3	3.336956E-4
10/19/2017  17:45:56.867013	1.241645E-1	1.431707E-3	3.615228E-3	5.414131E-3	7.830204E-4	5.279175E-3	3.896909E-3	4.486182E-3
10/19/2017  17:45:56.868013	1.102234E-1	2.445395E-4	9.862365E-5	1.696377E-2	2.319626E-3	2.935447E-3	4.021332E-3	1.233722E-3
10/19/2017  17:45:56.869013	1.642669E-1	2.053794E-3	2.128919E-3	8.725953E-3	3.420008E-3	6.206476E-3	3.307668E-3	3.027010E-3
10/19/2017  17:45:56.870013	5.414218E-1	2.023952E-3	3.990034E-3	5.051033E-3	2.032463E-3	8.258181E-4	1.369697E-3	2.515696E-3
10/19/2017  17:45:56.871013	6.096364E-1	6.373210E-3	2.507229E-3	2.725263E-3	5.512208E-3	8.666970E-4	1.413901E-3	2.627220E-3
								
10/19/2017  17:45:56.872013	1.309470E-1	6.246857E-5	1.572530E-3	6.863366E-4	6.918851E-3	5.973140E-3	9.675521E-4	6.518875E-3
10/19/2017  17:45:56.873013	2.910985E-1	3.824606E-3	1.319832E-4	1.445778E-3	1.752840E-3	4.549479E-3	6.220687E-3	3.652007E-3
10/19/2017  17:45:56.874013	6.563885E-1	3.358027E-3	2.210761E-3	3.180923E-3	1.591583E-3	4.917135E-3	5.933319E-3	5.980575E-3
10/19/2017  17:45:56.875013	9.768609E-1	1.804406E-3	8.448886E-4	4.521543E-3	4.033045E-3	1.041964E-2	5.309502E-4	3.407177E-3
10/19/2017  17:45:56.876013	7.946283E-1	6.118246E-3	2.448799E-3	1.640082E-3	3.596690E-3	3.365089E-3	7.370885E-4	3.792877E-4
10/19/2017  17:45:56.877013	3.139008E-1	4.356599E-5	3.263618E-3	8.148629E-4	4.314076E-3	4.320274E-3	2.980649E-4	1.290998E-3
10/19/2017  17:45:56.878013	1.715883E-1	8.955280E-3	2.634667E-3	2.734616E-3	7.946305E-3	8.001121E-4	3.728998E-3	3.892355E-3
10/19/2017  17:45:56.879013	5.995547E-2	4.207517E-3	3.293323E-3	3.173237E-4	2.591023E-3	4.627986E-3	2.353836E-4	6.682549E-3
10/19/2017  17:45:56.880013	6.797189E-1	2.207631E-3	2.159737E-3	1.063490E-3	1.102218E-2	3.369870E-3	3.514343E-4	3.266906E-3
10/19/2017  17:45:56.881013	1.147177E+0	2.638845E-3	9.002522E-4	1.750620E-3	7.814122E-4	3.541028E-4	5.092976E-3	6.876104E-3
10/19/2017  17:45:56.882013	1.078499E-1	4.963099E-3	2.244689E-3	3.156639E-4	9.881545E-3	2.311827E-3	1.497489E-3	1.920745E-3
10/19/2017  17:45:56.883013	1.128005E+0	3.625565E-3	6.851488E-3	9.121916E-4	1.616265E-3	1.091108E-3	1.076174E-2	5.286424E-3
10/19/2017  17:45:56.884013	6.580930E-1	2.601464E-3	4.713132E-3	3.029495E-3	6.685547E-3	6.338934E-4	3.803230E-3	2.319792E-3
10/19/2017  17:45:56.885013	5.621371E-1	7.590344E-4	5.751022E-3	2.772799E-3	1.468688E-3	8.176454E-4	4.314632E-3	1.280636E-3
10/19/2017  17:45:56.886013	6.842876E-1	2.507034E-3	3.046452E-3	3.852914E-3	1.909088E-3	1.064394E-3	5.047677E-3	1.719579E-3
10/19/2017  17:45:56.887013	5.465143E-2	1.402173E-4	1.329042E-3	4.202141E-3	7.407179E-4	1.965736E-3	8.570637E-3	4.291090E-3
10/19/2017  17:45:56.888013	6.430902E-1	3.229786E-3	8.083516E-3	4.320694E-4	2.935543E-3	1.072002E-3	6.560971E-3	4.836730E-4
10/19/2017  17:45:56.889013	8.422286E-1	5.415837E-3	5.689154E-3	9.944920E-3	3.470635E-3	3.506002E-3	3.153586E-3	5.581305E-4
10/19/2017  17:45:56.890013	4.268405E-1	1.569103E-3	3.233848E-4	2.920753E-3	1.553701E-3	4.706641E-3	3.469019E-3	3.421141E-3
10/19/2017  17:45:56.891013	4.240524E-1	6.695173E-4	1.745292E-3	1.410195E-3	1.393676E-3	1.762951E-3	1.277335E-4	1.788933E-3
10/19/2017  17:45:56.892013	7.952328E-1	1.127978E-3	8.924675E-3	5.709002E-3	5.186311E-4	3.087407E-3	2.832745E-3	4.030515E-5
10/19/2017  17:45:56.893013	6.237324E-1	7.023171E-3	1.015244E-2	2.771197E-3	1.338728E-3	2.599252E-3	2.117200E-3	2.702714E-3
10/19/2017  17:45:56.894013	4.896726E-1	3.063911E-3	3.821240E-3	5.795959E-3	4.224022E-3	3.497952E-3	8.969763E-4	1.530747E-4
10/19/2017  17:45:56.895013	3.857932E-1	7.247048E-3	1.479509E-3	5.096450E-3	5.830750E-3	2.823743E-3	4.496090E-3	3.131734E-4
10/19/2017  17:45:56.896013	2.572790E-1	2.747941E-3	4.703213E-3	1.324596E-4	2.308692E-3	9.405693E-4	4.981825E-4	5.648405E-3
10/19/2017  17:45:56.897013	3.187504E-1	1.700051E-4	1.079235E-2	3.045293E-3	1.763862E-3	2.158542E-3	4.471396E-3	2.471907E-4
10/19/2017  17:45:56.898013	4.858920E-1	1.272176E-3	5.957503E-3	3.244146E-3	4.359077E-3	5.318650E-3	1.422539E-3	7.159546E-3
10/19/2017  17:45:56.899013	4.510253E-1	7.425117E-3	3.443924E-4	2.715278E-3	1.354318E-3	7.495615E-3	4.580355E-3	2.570878E-3
10/19/2017  17:45:56.900013	1.263840E-1	9.600673E-3	5.345828E-3	2.461526E-3	7.133555E-4	2.690884E-3	1.200996E-3	4.620650E-5
10/19/2017  17:45:56.901013	3.559377E-1	2.512479E-3	6.903212E-3	8.452337E-3	8.578461E-4	6.805610E-4	5.501988E-3	3.751517E-3
10/19/2017  17:45:56.902013	6.916621E-1	8.005261E-4	3.349849E-4	5.822226E-4	5.130125E-3	7.206248E-3	3.436590E-3	2.370237E-3
10/19/2017  17:45:56.903013	5.494868E-1	2.061049E-3	1.581220E-3	5.235904E-3	6.910040E-3	1.265611E-3	1.258618E-3	5.316170E-3
10/19/2017  17:45:56.904013	1.486726E-1	5.843944E-4	1.882967E-3	8.058041E-3	5.993025E-3	6.117397E-3	4.563596E-4	5.759344E-3
								
10/19/2017  17:45:56.905013	2.245864E-1	4.803409E-3	5.686862E-4	1.384330E-2	6.082605E-3	7.125678E-3	4.021251E-3	3.975113E-3
10/19/2017  17:45:56.906013	8.480496E-1	5.666083E-3	4.435363E-3	2.463629E-3	1.728249E-3	5.696672E-3	2.793502E-3	6.901754E-3
10/19/2017  17:45:56.907013	9.549725E-1	2.050763E-3	4.095360E-3	5.920818E-3	2.886797E-3	9.348241E-4	1.537119E-3	4.093321E-3
10/19/2017  17:45:56.908013	8.495964E-3	1.207547E-3	2.329666E-3	8.370292E-3	1.263778E-3	2.314633E-3	4.013461E-3	3.898257E-3
10/19/2017  17:45:56.909013	8.531123E-1	6.668093E-3	7.941363E-3	6.815797E-3	5.349139E-4	2.914579E-3	4.283714E-3	1.512108E-3
10/19/2017  17:45:56.910013	6.262070E-1	3.502597E-3	6.416676E-4	3.960040E-3	2.349657E-3	4.602282E-3	1.078463E-3	4.226084E-3
10/19/2017  17:45:56.911013	1.113844E-2	1.648563E-3	8.947691E-3	4.723664E-3	7.311636E-3	4.989725E-3	7.553065E-5	1.693259E-3
10/19/2017  17:45:56.912013	6.661952E-2	1.859842E-4	1.872834E-3	6.178118E-5	6.541328E-3	4.965416E-3	1.638714E-3	4.324061E-4
10/19/2017  17:45:56.913013	1.931840E-1	1.429364E-3	1.970806E-3	8.791757E-3	2.294946E-4	4.827454E-3	1.422203E-3	5.093957E-3
10/19/2017  17:45:56.914013	3.459404E-1	4.023995E-3	2.215760E-4	6.164418E-3	2.303285E-4	2.688919E-4	4.103769E-3	6.073916E-3
10/19/2017  17:45:56.915013	1.530136E-1	2.958825E-3	5.958175E-3	2.456898E-4	4.120753E-3	4.199094E-3	1.534461E-3	6.981868E-3
10/19/2017  17:45:56.916013	3.823019E-1	1.210003E-3	8.140589E-3	3.119311E-3	4.204957E-3	4.097999E-3	9.562264E-4	3.028067E-4
10/19/2017  17:45:56.917013	6.296027E-1	8.732561E-4	3.609628E-4	1.902284E-3	1.133438E-3	3.306366E-3	2.997355E-3	9.801295E-3
10/19/2017  17:45:56.918013	3.261234E-1	3.353645E-3	4.876222E-3	7.230125E-3	8.297719E-3	2.726492E-3	1.950245E-3	8.162535E-4
10/19/2017  17:45:56.919013	8.932823E-2	5.266979E-3	4.265840E-3	8.630370E-3	6.627442E-3	2.346055E-3	6.832998E-4	7.365907E-3
10/19/2017  17:45:56.920013	1.262028E-1	7.077737E-4	3.435589E-3	1.335335E-3	2.875839E-3	8.986957E-4	3.183949E-3	6.221147E-4
10/19/2017  17:45:56.921013	6.516226E-2	1.558904E-3	2.851988E-3	2.923795E-3	6.822894E-4	2.004662E-3	2.722449E-3	2.528011E-3
10/19/2017  17:45:56.922013	8.200950E-2	2.876107E-3	1.821801E-3	7.757380E-4	7.076390E-3	1.074366E-3	4.575422E-3	5.173965E-4
10/19/2017  17:45:56.923013	3.662980E-1	2.075068E-3	5.352411E-3	1.696922E-5	6.942348E-5	4.865117E-3	3.063769E-4	4.055040E-3
10/19/2017  17:45:56.924013	2.279278E-1	7.827954E-4	1.011174E-2	6.950822E-3	6.846225E-3	9.071623E-4	4.433106E-3	5.746448E-5
10/19/2017  17:45:56.925013	4.579872E-1	1.669818E-3	1.586704E-3	8.637622E-3	3.222557E-4	4.483524E-3	4.479530E-3	4.091869E-3
10/19/2017  17:45:56.926013	8.091262E-1	3.811293E-3	3.772349E-3	3.854905E-3	1.504194E-3	8.474478E-4	5.806680E-3	6.678638E-4
10/19/2017  17:45:56.927013	9.417512E-1	1.965154E-3	1.009829E-3	9.201260E-3	4.148421E-3	3.982478E-3	1.799877E-3	8.030040E-4
10/19/2017  17:45:56.928013	1.382491E+0	7.730656E-3	5.632804E-4	4.647131E-4	2.134867E-4	1.175240E-3	1.190409E-3	9.600872E-4
10/19/2017  17:45:56.929013	9.439537E-1	5.567772E-3	2.398127E-3	5.386797E-4	2.541902E-3	3.281806E-3	4.068318E-3	3.547733E-3
10/19/2017  17:45:56.930013	6.626840E-1	2.350434E-3	1.087479E-3	3.644230E-3	1.445758E-3	4.588606E-3	1.291677E-3	3.064466E-3
10/19/2017  17:45:56.931013	1.112383E+0	9.683782E-6	2.527066E-3	1.399536E-3	1.391107E-3	2.557021E-3	1.063900E-4	3.933632E-3
10/19/2017  17:45:56.932013	2.337098E-1	4.965589E-3	4.522229E-3	4.583884E-3	2.237790E-4	4.160888E-3	3.916895E-3	6.391845E-3
10/19/2017  17:45:56.933013	4.072515E-1	2.349503E-3	3.861716E-3	2.083164E-3	2.504146E-3	4.938445E-3	1.625070E-3	2.115755E-3
10/19/2017  17:45:56.934013	1.496074E+0	7.123516E-3	3.481644E-3	5.828909E-3	4.970298E-3	3.501347E-3	5.224809E-4	2.989545E-3
10/19/2017  17:45:56.935013	1.839462E+0	1.356752E-2	1.663820E-3	1.055586E-3	8.203410E-4	5.928624E-3	6.127983E-4	4.409228E-3
10/19/2017  17:45:56.936013	1.234570E+0	7.782175E-3	2.025946E-4	6.815526E-3	2.068598E-3	1.524917E-3	1.158774E-3	5.115537E-3
10/19/2017  17:45:56.937013	1.055084E-2	5.440184E-4	2.259760E-3	3.157241E-3	3.614577E-3	1.395665E-3	3.771599E-3	2.273715E-3
								
10/19/2017  17:45:56.938013	1.131781E+0	9.667332E-4	6.908192E-3	1.047928E-3	2.578839E-3	6.167311E-3	5.959724E-3	6.867334E-3
10/19/2017  17:45:56.939013	1.357563E+0	2.611418E-3	4.240808E-3	1.904027E-3	1.514294E-3	8.710096E-4	1.600354E-3	7.371147E-3
10/19/2017  17:45:56.940013	1.082334E+0	1.870454E-3	8.658076E-4	3.432851E-3	8.996208E-4	3.301845E-3	3.617300E-3	4.884808E-3
