Parameters: 	Upper Cutoff: : 500	Lower Cutoff: : 30	Sample Rate (HZ)1000	Frames Per Second: 30	Display Window Size (S)400	MVC Window Size (s): 400	Seconds To Acquire MVC: 3	Display Channel: 0
waveform	[0]	[1]	[2]	[3]	[4]	[5]	[6]	[7]
t0	10/19/2017  17:46:32.642892	10/19/2017  17:46:32.642892	10/19/2017  17:46:32.642892	10/19/2017  17:46:32.642892	10/19/2017  17:46:32.642892	10/19/2017  17:46:32.642892	10/19/2017  17:46:32.642892	10/19/2017  17:46:32.642892
delta t	0.001000	0.001000	0.001000	0.001000	0.001000	0.001000	0.001000	0.001000

time	Y[0]	Y[1]	Y[2]	Y[3]	Y[4]	Y[5]	Y[6]	Y[7]
10/19/2017  17:46:32.627803	2.471706E-1	1.573716E-2	1.900811E-2	-1.015160E+1	1.967868E-2	2.963800E-2	7.714242E-2	2.401527E-2
10/19/2017  17:46:32.628803	3.056365E-1	1.319332E-2	2.664372E-2	-1.013123E+1	1.967868E-2	2.200605E-2	7.205661E-2	3.164702E-2
10/19/2017  17:46:32.629803	3.158045E-1	5.561801E-3	1.137250E-2	-1.012614E+1	1.712873E-2	2.200605E-2	6.951371E-2	2.401527E-2
10/19/2017  17:46:32.630803	3.005525E-1	1.828100E-2	1.391770E-2	-1.014651E+1	1.967868E-2	2.709402E-2	7.714242E-2	3.164702E-2
10/19/2017  17:46:32.631803	-2.536030E-1	8.105642E-3	1.900811E-2	-1.013378E+1	-7.209035E-4	1.946206E-2	7.205661E-2	4.182269E-2
10/19/2017  17:46:32.632803	-4.366268E-1	8.105642E-3	1.391770E-2	-1.012869E+1	2.477858E-2	1.437409E-2	6.951371E-2	3.164702E-2
10/19/2017  17:46:32.633803	-3.425729E-1	2.082484E-2	1.137250E-2	-1.014651E+1	2.732853E-2	2.455003E-2	6.951371E-2	3.419094E-2
10/19/2017  17:46:32.634803	-1.849691E-1	1.828100E-2	2.409852E-2	-1.012359E+1	1.457878E-2	1.946206E-2	7.714242E-2	3.419094E-2
10/19/2017  17:46:32.635803	-2.942750E-1	4.741205E-4	1.391770E-2	-1.012869E+1	1.967868E-2	1.183011E-2	7.459952E-2	2.401527E-2
10/19/2017  17:46:32.636803	2.242926E-1	1.828100E-2	1.137250E-2	-1.014651E+1	2.732853E-2	1.437409E-2	6.697081E-2	2.910311E-2
10/19/2017  17:46:32.637803	1.505746E-1	1.828100E-2	2.409852E-2	-1.013887E+1	2.477858E-2	2.963800E-2	7.459952E-2	2.655919E-2
10/19/2017  17:46:32.638803	6.005082E-1	1.064948E-2	2.409852E-2	-1.013123E+1	1.967868E-2	2.200605E-2	8.222822E-2	2.910311E-2
10/19/2017  17:46:32.639803	6.055922E-1	8.105642E-3	1.391770E-2	-1.013378E+1	2.477858E-2	1.946206E-2	7.714242E-2	3.164702E-2
10/19/2017  17:46:32.640803	3.691864E-1	5.561801E-3	1.900811E-2	-1.013632E+1	2.477858E-2	1.946206E-2	7.205661E-2	2.401527E-2
10/19/2017  17:46:32.641803	1.230924E+0	1.319332E-2	1.191689E-3	-1.013632E+1	9.478889E-3	2.963800E-2	7.714242E-2	3.164702E-2
10/19/2017  17:46:32.642803	1.185168E+0	2.082484E-2	1.900811E-2	-1.013632E+1	2.477858E-2	2.455003E-2	7.714242E-2	3.419094E-2
10/19/2017  17:46:32.643803	-3.934129E-1	1.573716E-2	1.900811E-2	-1.014142E+1	2.222863E-2	1.946206E-2	7.205661E-2	2.910311E-2
10/19/2017  17:46:32.644803	-1.547480E+0	2.591253E-2	1.391770E-2	-1.013378E+1	1.712873E-2	2.200605E-2	7.205661E-2	2.401527E-2
10/19/2017  17:46:32.645803	-1.000950E+0	1.064948E-2	2.409852E-2	-1.013632E+1	1.457878E-2	2.455003E-2	8.222822E-2	4.182269E-2
10/19/2017  17:46:32.646803	-4.112068E-1	2.082484E-2	1.900811E-2	-1.013887E+1	2.477858E-2	1.691808E-2	7.459952E-2	2.910311E-2
10/19/2017  17:46:32.647803	2.370026E-1	1.064948E-2	1.391770E-2	-1.013632E+1	2.477858E-2	2.200605E-2	7.459952E-2	3.164702E-2
10/19/2017  17:46:32.648803	-8.583114E-2	1.828100E-2	1.646291E-2	-1.014142E+1	1.712873E-2	1.946206E-2	7.968532E-2	2.910311E-2
10/19/2017  17:46:32.649803	-6.069407E-1	1.064948E-2	1.646291E-2	-1.014142E+1	1.967868E-2	1.946206E-2	7.459952E-2	4.182269E-2
10/19/2017  17:46:32.650803	-1.417551E-1	1.319332E-2	1.391770E-2	-1.013378E+1	1.967868E-2	2.455003E-2	6.697081E-2	3.164702E-2
10/19/2017  17:46:32.651803	1.759659E+0	1.828100E-2	2.155331E-2	-1.013887E+1	1.967868E-2	3.472597E-2	7.968532E-2	2.910311E-2
10/19/2017  17:46:32.652803	1.065694E+0	1.319332E-2	2.155331E-2	-1.013887E+1	1.712873E-2	2.455003E-2	8.985693E-2	4.182269E-2
10/19/2017  17:46:32.653803	-5.154288E-1	1.064948E-2	1.646291E-2	-1.013632E+1	1.967868E-2	1.437409E-2	7.205661E-2	3.927877E-2
10/19/2017  17:46:32.654803	-1.204310E+0	1.064948E-2	1.391770E-2	-1.014651E+1	2.477858E-2	2.963800E-2	6.697081E-2	3.673486E-2
10/19/2017  17:46:32.655803	-7.975905E-1	2.082484E-2	1.391770E-2	-1.014142E+1	1.457878E-2	1.946206E-2	7.968532E-2	2.655919E-2
10/19/2017  17:46:32.656803	-2.383510E-1	1.573716E-2	3.173413E-2	-1.013632E+1	1.457878E-2	1.183011E-2	7.968532E-2	3.673486E-2
10/19/2017  17:46:32.657803	-7.029213E-3	5.561801E-3	1.391770E-2	-1.012614E+1	1.712873E-2	2.709402E-2	5.934210E-2	3.673486E-2
10/19/2017  17:46:32.658803	4.301944E-1	1.573716E-2	1.391770E-2	-1.013887E+1	2.732853E-2	1.691808E-2	6.951371E-2	2.401527E-2
10/19/2017  17:46:32.659803	2.929265E-1	1.319332E-2	2.155331E-2	-1.014905E+1	1.967868E-2	2.709402E-2	8.477112E-2	2.401527E-2
								
10/19/2017  17:46:32.660803	1.327807E-1	1.064948E-2	1.646291E-2	-1.012614E+1	9.478889E-3	2.455003E-2	7.968532E-2	3.927877E-2
10/19/2017  17:46:32.661803	5.801723E-1	1.064948E-2	1.137250E-2	-1.013378E+1	2.477858E-2	1.691808E-2	6.951371E-2	2.910311E-2
10/19/2017  17:46:32.662803	5.572943E-1	1.573716E-2	1.137250E-2	-1.013887E+1	1.457878E-2	1.946206E-2	7.459952E-2	2.147136E-2
10/19/2017  17:46:32.663803	1.759946E-1	1.573716E-2	1.391770E-2	-1.013632E+1	1.202884E-2	2.455003E-2	7.459952E-2	3.164702E-2
10/19/2017  17:46:32.664803	-5.713527E-1	1.319332E-2	2.155331E-2	-1.013887E+1	2.222863E-2	4.198150E-3	7.205661E-2	3.419094E-2
10/19/2017  17:46:32.665803	-2.129310E-1	3.100021E-2	8.827299E-3	-1.013123E+1	2.987847E-2	2.200605E-2	7.205661E-2	3.164702E-2
10/19/2017  17:46:32.666803	9.719269E-2	1.828100E-2	1.900811E-2	-1.014142E+1	2.222863E-2	2.963800E-2	6.951371E-2	3.164702E-2
10/19/2017  17:46:32.667803	8.242040E-1	1.064948E-2	2.155331E-2	-1.013378E+1	1.202884E-2	2.200605E-2	7.714242E-2	2.655919E-2
10/19/2017  17:46:32.668803	6.157602E-1	1.064948E-2	1.137250E-2	-1.014142E+1	2.222863E-2	1.183011E-2	7.459952E-2	3.673486E-2
10/19/2017  17:46:32.669803	-1.112511E-1	1.319332E-2	1.137250E-2	-1.013632E+1	1.967868E-2	2.963800E-2	5.934210E-2	2.910311E-2
10/19/2017  17:46:32.670803	5.967806E-4	2.591253E-2	3.173413E-2	-1.014651E+1	1.457878E-2	2.963800E-2	7.714242E-2	3.164702E-2
10/19/2017  17:46:32.671803	3.386825E-1	5.561801E-3	2.409852E-2	-1.013632E+1	1.202884E-2	1.691808E-2	8.222822E-2	2.401527E-2
10/19/2017  17:46:32.672803	2.751325E-1	5.561801E-3	6.282096E-3	-1.012869E+1	2.477858E-2	1.691808E-2	6.951371E-2	3.419094E-2
10/19/2017  17:46:32.673803	8.674180E-1	1.828100E-2	6.282096E-3	-1.014142E+1	2.222863E-2	2.709402E-2	6.697081E-2	2.910311E-2
10/19/2017  17:46:32.674803	-2.688550E-1	2.082484E-2	2.664372E-2	-1.012359E+1	1.457878E-2	2.200605E-2	8.731403E-2	3.419094E-2
10/19/2017  17:46:32.675803	-8.331785E-1	1.573716E-2	2.918892E-2	-1.014651E+1	2.222863E-2	1.437409E-2	7.459952E-2	3.673486E-2
10/19/2017  17:46:32.676803	-7.238726E-1	8.105642E-3	1.137250E-2	-1.014142E+1	2.732853E-2	1.691808E-2	6.697081E-2	2.910311E-2
10/19/2017  17:46:32.677803	-5.103448E-1	1.319332E-2	8.827299E-3	-1.014396E+1	1.457878E-2	1.946206E-2	7.459952E-2	2.147136E-2
10/19/2017  17:46:32.678803	-1.219562E+0	1.573716E-2	2.664372E-2	-1.013632E+1	1.457878E-2	2.200605E-2	8.222822E-2	3.164702E-2
10/19/2017  17:46:32.679803	-6.069407E-1	8.105642E-3	3.173413E-2	-1.013123E+1	2.222863E-2	1.691808E-2	7.205661E-2	3.673486E-2
10/19/2017  17:46:32.680803	-8.583114E-2	1.064948E-2	8.827299E-3	-1.013378E+1	2.477858E-2	2.455003E-2	6.697081E-2	2.655919E-2
10/19/2017  17:46:32.681803	1.312268E+0	1.828100E-2	8.827299E-3	-1.014142E+1	1.712873E-2	1.946206E-2	7.459952E-2	3.164702E-2
10/19/2017  17:46:32.682803	1.383444E+0	5.561801E-3	1.900811E-2	-1.014142E+1	1.202884E-2	2.200605E-2	7.714242E-2	2.910311E-2
10/19/2017  17:46:32.683803	2.064986E-1	5.561801E-3	1.900811E-2	-1.012869E+1	2.222863E-2	1.437409E-2	7.205661E-2	3.927877E-2
10/19/2017  17:46:32.684803	-3.857869E-1	2.082484E-2	2.155331E-2	-1.014396E+1	2.222863E-2	1.946206E-2	6.951371E-2	3.164702E-2
10/19/2017  17:46:32.685803	-2.078470E-1	1.573716E-2	2.155331E-2	-1.013887E+1	2.222863E-2	1.946206E-2	7.205661E-2	2.910311E-2
10/19/2017  17:46:32.686803	1.404067E-1	4.741205E-4	2.155331E-2	-1.014651E+1	1.967868E-2	1.691808E-2	7.714242E-2	3.164702E-2
10/19/2017  17:46:32.687803	6.666002E-1	8.105642E-3	1.137250E-2	-1.012869E+1	2.477858E-2	1.691808E-2	6.951371E-2	3.927877E-2
10/19/2017  17:46:32.688803	3.005525E-1	1.064948E-2	1.646291E-2	-1.013887E+1	2.987847E-2	1.946206E-2	7.459952E-2	3.673486E-2
10/19/2017  17:46:32.689803	2.522546E-1	1.573716E-2	2.409852E-2	-1.014396E+1	1.967868E-2	2.963800E-2	7.459952E-2	2.655919E-2
10/19/2017  17:46:32.690803	-1.211321E-2	1.319332E-2	2.155331E-2	-1.013378E+1	1.457878E-2	1.946206E-2	8.222822E-2	2.910311E-2
10/19/2017  17:46:32.691803	-1.824271E-1	1.573716E-2	1.900811E-2	-1.013887E+1	2.222863E-2	1.183011E-2	6.951371E-2	3.164702E-2
10/19/2017  17:46:32.692803	-6.857426E-1	8.105642E-3	1.900811E-2	-1.013887E+1	1.967868E-2	2.200605E-2	7.205661E-2	1.892744E-2
								
10/19/2017  17:46:32.693803	-3.298629E-1	1.319332E-2	1.646291E-2	-1.011850E+1	2.222863E-2	2.709402E-2	8.477112E-2	3.164702E-2
10/19/2017  17:46:32.694803	3.590185E-1	8.105642E-3	2.664372E-2	-1.012869E+1	1.712873E-2	1.946206E-2	8.222822E-2	3.419094E-2
10/19/2017  17:46:32.695803	3.361405E-1	1.064948E-2	1.900811E-2	-1.015160E+1	1.967868E-2	1.946206E-2	5.934210E-2	2.910311E-2
10/19/2017  17:46:32.696803	8.496240E-1	1.319332E-2	2.409852E-2	-1.014396E+1	1.457878E-2	2.963800E-2	7.205661E-2	2.401527E-2
10/19/2017  17:46:32.697803	1.759946E-1	1.573716E-2	2.409852E-2	-1.013632E+1	1.457878E-2	1.946206E-2	9.239983E-2	2.655919E-2
10/19/2017  17:46:32.698803	-1.719720E-2	1.064948E-2	2.918892E-2	-1.013378E+1	2.477858E-2	1.437409E-2	7.459952E-2	3.927877E-2
10/19/2017  17:46:32.699803	7.177272E-2	5.561801E-3	1.391770E-2	-1.013632E+1	2.222863E-2	2.455003E-2	6.951371E-2	2.655919E-2
10/19/2017  17:46:32.700803	-4.261718E-2	1.828100E-2	6.282096E-3	-1.014651E+1	1.457878E-2	1.437409E-2	7.205661E-2	2.147136E-2
10/19/2017  17:46:32.701803	-1.973920E-2	8.105642E-3	2.664372E-2	-1.014142E+1	1.202884E-2	1.946206E-2	7.714242E-2	3.673486E-2
10/19/2017  17:46:32.702803	2.014146E-1	8.105642E-3	2.155331E-2	-1.013123E+1	2.222863E-2	4.198150E-3	7.459952E-2	3.673486E-2
10/19/2017  17:46:32.703803	1.253802E+0	2.591253E-2	8.827299E-3	-1.013123E+1	3.242842E-2	2.709402E-2	6.697081E-2	2.401527E-2
10/19/2017  17:46:32.704803	1.383444E+0	2.082484E-2	2.664372E-2	-1.013887E+1	1.457878E-2	2.963800E-2	7.205661E-2	3.164702E-2
10/19/2017  17:46:32.705803	-4.487215E-3	5.561801E-3	1.646291E-2	-1.013887E+1	1.712873E-2	1.691808E-2	7.205661E-2	3.673486E-2
10/19/2017  17:46:32.706803	-6.196507E-1	1.064948E-2	1.137250E-2	-1.013378E+1	2.477858E-2	2.200605E-2	6.951371E-2	2.655919E-2
10/19/2017  17:46:32.707803	5.674623E-1	1.828100E-2	2.155331E-2	-1.013632E+1	4.007827E-2	2.709402E-2	7.459952E-2	3.164702E-2
10/19/2017  17:46:32.708803	1.007228E+0	1.064948E-2	3.173413E-2	-1.012614E+1	1.457878E-2	1.437409E-2	7.968532E-2	3.927877E-2
10/19/2017  17:46:32.709803	-1.973920E-2	5.561801E-3	1.137250E-2	-1.012869E+1	1.457878E-2	1.183011E-2	7.714242E-2	3.927877E-2
10/19/2017  17:46:32.710803	-7.238726E-1	1.064948E-2	1.191689E-3	-1.014651E+1	2.477858E-2	1.691808E-2	6.697081E-2	2.655919E-2
10/19/2017  17:46:32.711803	-3.298629E-1	1.573716E-2	1.900811E-2	-1.014142E+1	1.967868E-2	2.963800E-2	7.968532E-2	1.383961E-2
10/19/2017  17:46:32.712803	6.668872E-2	5.561801E-3	2.409852E-2	-1.011850E+1	1.202884E-2	2.455003E-2	8.477112E-2	3.419094E-2
10/19/2017  17:46:32.713803	-1.925950E-1	1.064948E-2	1.137250E-2	-1.013123E+1	2.732853E-2	1.437409E-2	6.951371E-2	1.892744E-2
10/19/2017  17:46:32.714803	-1.976790E-1	1.828100E-2	1.900811E-2	-1.016178E+1	2.222863E-2	2.709402E-2	6.697081E-2	2.655919E-2
10/19/2017  17:46:32.715803	-1.290451E-1	8.105642E-3	2.664372E-2	-1.013887E+1	1.202884E-2	1.946206E-2	7.714242E-2	2.910311E-2
10/19/2017  17:46:32.716803	-2.612290E-1	1.064948E-2	1.137250E-2	-1.012614E+1	2.477858E-2	1.691808E-2	6.951371E-2	4.182269E-2
10/19/2017  17:46:32.717803	-1.417551E-1	1.828100E-2	2.155331E-2	-1.014396E+1	2.987847E-2	2.455003E-2	6.697081E-2	2.655919E-2
10/19/2017  17:46:32.718803	-6.549516E-2	2.845637E-2	2.664372E-2	-1.013632E+1	9.478889E-3	2.963800E-2	7.968532E-2	3.164702E-2
10/19/2017  17:46:32.719803	-1.239611E-1	5.561801E-3	2.155331E-2	-1.012359E+1	2.477858E-2	6.742135E-3	7.459952E-2	3.419094E-2
10/19/2017  17:46:32.720803	-1.620911E-1	1.573716E-2	1.391770E-2	-1.013887E+1	2.732853E-2	1.946206E-2	6.951371E-2	3.419094E-2
10/19/2017  17:46:32.721803	-1.290451E-1	1.828100E-2	1.900811E-2	-1.013632E+1	2.477858E-2	3.981394E-2	7.205661E-2	2.655919E-2
10/19/2017  17:46:32.722803	-7.312115E-2	1.828100E-2	2.155331E-2	-1.012869E+1	1.457878E-2	1.946206E-2	8.477112E-2	3.419094E-2
10/19/2017  17:46:32.723803	-4.515918E-2	8.105642E-3	1.900811E-2	-1.013632E+1	2.477858E-2	1.691808E-2	7.205661E-2	4.436661E-2
10/19/2017  17:46:32.724803	1.226127E-1	4.741205E-4	1.137250E-2	-1.014905E+1	1.712873E-2	2.200605E-2	6.697081E-2	2.910311E-2
10/19/2017  17:46:32.725803	6.132182E-1	2.082484E-2	1.900811E-2	-1.013887E+1	2.222863E-2	2.963800E-2	7.714242E-2	2.655919E-2
								
10/19/2017  17:46:32.726803	6.488062E-1	1.319332E-2	2.664372E-2	-1.012614E+1	2.477858E-2	1.946206E-2	8.477112E-2	3.927877E-2
10/19/2017  17:46:32.727803	5.598363E-1	1.573716E-2	2.155331E-2	-1.012359E+1	2.222863E-2	1.691808E-2	7.205661E-2	3.419094E-2
10/19/2017  17:46:32.728803	3.259725E-1	1.064948E-2	8.827299E-3	-1.014396E+1	2.222863E-2	2.200605E-2	6.697081E-2	2.401527E-2
10/19/2017  17:46:32.729803	1.048187E-1	2.082484E-2	1.137250E-2	-1.014905E+1	1.967868E-2	2.709402E-2	7.714242E-2	2.401527E-2
10/19/2017  17:46:32.730803	4.889474E-2	1.828100E-2	2.409852E-2	-1.014142E+1	1.457878E-2	2.455003E-2	7.968532E-2	4.691052E-2
10/19/2017  17:46:32.731803	-8.328914E-2	5.561801E-3	2.664372E-2	-1.011086E+1	1.967868E-2	2.455003E-2	7.205661E-2	3.673486E-2
10/19/2017  17:46:32.732803	-1.112511E-1	1.064948E-2	6.282096E-3	-1.013887E+1	2.477858E-2	1.437409E-2	6.951371E-2	3.164702E-2
10/19/2017  17:46:32.733803	-2.561450E-1	1.573716E-2	1.137250E-2	-1.013887E+1	2.222863E-2	3.472597E-2	6.697081E-2	2.655919E-2
10/19/2017  17:46:32.734803	-4.696728E-1	1.064948E-2	2.918892E-2	-1.013632E+1	1.457878E-2	2.455003E-2	7.968532E-2	2.147136E-2
10/19/2017  17:46:32.735803	-5.205127E-1	1.064948E-2	2.664372E-2	-1.013123E+1	1.457878E-2	1.691808E-2	7.205661E-2	3.419094E-2
10/19/2017  17:46:32.736803	-2.866490E-1	3.017961E-3	2.155331E-2	-1.013378E+1	3.242842E-2	1.946206E-2	7.459952E-2	2.910311E-2
10/19/2017  17:46:32.737803	1.709106E-1	1.319332E-2	1.900811E-2	-1.013632E+1	1.967868E-2	2.455003E-2	6.951371E-2	2.910311E-2
10/19/2017  17:46:32.738803	5.445843E-1	1.064948E-2	6.282096E-3	-1.014651E+1	1.967868E-2	1.691808E-2	7.205661E-2	2.655919E-2
10/19/2017  17:46:32.739803	7.987841E-1	1.064948E-2	2.918892E-2	-1.013378E+1	2.477858E-2	2.200605E-2	7.714242E-2	3.164702E-2
10/19/2017  17:46:32.740803	7.431471E-2	3.017961E-3	1.900811E-2	-1.013887E+1	2.222863E-2	1.946206E-2	7.459952E-2	3.673486E-2
10/19/2017  17:46:32.741803	2.751325E-1	2.845637E-2	1.900811E-2	-1.013887E+1	3.497837E-2	1.946206E-2	7.459952E-2	3.164702E-2
10/19/2017  17:46:32.742803	-1.973920E-2	1.828100E-2	1.900811E-2	-1.014651E+1	2.222863E-2	1.437409E-2	7.205661E-2	2.147136E-2
10/19/2017  17:46:32.743803	-6.399866E-1	1.064948E-2	1.900811E-2	-1.013887E+1	1.712873E-2	2.200605E-2	7.714242E-2	2.401527E-2
10/19/2017  17:46:32.744803	-7.238726E-1	1.319332E-2	1.137250E-2	-1.013378E+1	2.477858E-2	1.691808E-2	7.459952E-2	3.673486E-2
10/19/2017  17:46:32.745803	-2.663130E-1	1.573716E-2	1.391770E-2	-1.013378E+1	3.752832E-2	2.709402E-2	6.951371E-2	3.927877E-2
10/19/2017  17:46:32.746803	-5.024317E-2	2.082484E-2	1.900811E-2	-1.014396E+1	2.222863E-2	2.963800E-2	7.205661E-2	2.655919E-2
10/19/2017  17:46:32.747803	-3.654509E-1	1.319332E-2	2.155331E-2	-1.013378E+1	6.928941E-3	2.200605E-2	8.222822E-2	2.147136E-2
10/19/2017  17:46:32.748803	4.683244E-1	1.064948E-2	1.137250E-2	-1.014396E+1	1.967868E-2	9.286120E-3	7.205661E-2	4.182269E-2
10/19/2017  17:46:32.749803	5.471263E-1	8.105642E-3	1.391770E-2	-1.013887E+1	2.477858E-2	2.709402E-2	6.951371E-2	4.182269E-2
10/19/2017  17:46:32.750803	4.632404E-1	2.082484E-2	1.646291E-2	-1.013887E+1	2.222863E-2	3.218199E-2	7.968532E-2	2.655919E-2
10/19/2017  17:46:32.751803	3.895224E-1	5.561801E-3	2.918892E-2	-1.014142E+1	1.712873E-2	1.437409E-2	7.968532E-2	3.419094E-2
10/19/2017  17:46:32.752803	1.836206E-1	4.741205E-4	1.900811E-2	-1.013123E+1	1.967868E-2	1.183011E-2	7.459952E-2	3.164702E-2
10/19/2017  17:46:32.753803	-8.837314E-2	4.741205E-4	3.736893E-3	-1.013378E+1	2.222863E-2	1.946206E-2	7.205661E-2	3.419094E-2
10/19/2017  17:46:32.754803	8.194071E-2	8.105642E-3	1.900811E-2	-1.014142E+1	1.967868E-2	2.963800E-2	8.222822E-2	3.164702E-2
10/19/2017  17:46:32.755803	-2.434350E-1	1.319332E-2	1.137250E-2	-1.013632E+1	2.477858E-2	2.455003E-2	7.459952E-2	3.164702E-2
10/19/2017  17:46:32.756803	-1.976790E-1	3.017961E-3	1.646291E-2	-1.013887E+1	1.967868E-2	1.946206E-2	5.679920E-2	3.673486E-2
10/19/2017  17:46:32.757803	7.939871E-2	1.319332E-2	8.827299E-3	-1.014142E+1	2.477858E-2	9.286120E-3	6.951371E-2	2.147136E-2
10/19/2017  17:46:32.758803	6.160473E-2	1.064948E-2	2.155331E-2	-1.014396E+1	1.967868E-2	2.963800E-2	7.205661E-2	2.655919E-2
								
10/19/2017  17:46:32.759803	5.143673E-2	1.319332E-2	1.900811E-2	-1.013632E+1	1.457878E-2	2.963800E-2	7.968532E-2	3.927877E-2
10/19/2017  17:46:32.760803	3.361405E-1	1.828100E-2	1.646291E-2	-1.012614E+1	2.477858E-2	1.691808E-2	7.459952E-2	3.927877E-2
10/19/2017  17:46:32.761803	2.319186E-1	1.064948E-2	8.827299E-3	-1.014905E+1	2.987847E-2	1.691808E-2	6.951371E-2	2.147136E-2
10/19/2017  17:46:32.762803	3.971484E-1	8.105642E-3	1.646291E-2	-1.015415E+1	1.967868E-2	2.963800E-2	7.205661E-2	1.892744E-2
10/19/2017  17:46:32.763803	7.685671E-2	8.105642E-3	2.155331E-2	-1.013123E+1	1.457878E-2	1.946206E-2	8.222822E-2	3.673486E-2
10/19/2017  17:46:32.764803	-9.599913E-2	8.105642E-3	1.137250E-2	-1.012614E+1	2.987847E-2	1.437409E-2	7.205661E-2	4.436661E-2
10/19/2017  17:46:32.765803	1.353227E-1	1.573716E-2	1.646291E-2	-1.014905E+1	2.732853E-2	2.200605E-2	6.697081E-2	2.401527E-2
10/19/2017  17:46:32.766803	1.759946E-1	2.082484E-2	2.664372E-2	-1.013887E+1	1.829045E-3	2.709402E-2	7.205661E-2	2.401527E-2
10/19/2017  17:46:32.767803	1.709106E-1	8.105642E-3	6.282096E-3	-1.014142E+1	2.222863E-2	1.183011E-2	7.459952E-2	2.910311E-2
10/19/2017  17:46:32.768803	4.126874E-2	5.561801E-3	1.391770E-2	-1.013378E+1	2.987847E-2	2.455003E-2	6.951371E-2	3.419094E-2
10/19/2017  17:46:32.769803	8.956670E-2	1.828100E-2	1.391770E-2	-1.012869E+1	2.732853E-2	3.726996E-2	6.697081E-2	2.655919E-2
10/19/2017  17:46:32.770803	-4.137488E-1	2.591253E-2	1.900811E-2	-1.014396E+1	1.457878E-2	2.200605E-2	7.968532E-2	3.164702E-2
10/19/2017  17:46:32.771803	3.590185E-1	5.561801E-3	2.664372E-2	-1.014651E+1	1.457878E-2	1.183011E-2	6.951371E-2	4.182269E-2
10/19/2017  17:46:32.772803	6.284702E-1	5.561801E-3	1.900811E-2	-1.013887E+1	2.732853E-2	2.709402E-2	6.697081E-2	3.164702E-2
10/19/2017  17:46:32.773803	2.573385E-1	2.336868E-2	1.391770E-2	-1.014651E+1	2.222863E-2	2.709402E-2	8.477112E-2	3.164702E-2
10/19/2017  17:46:32.774803	-3.400309E-1	1.319332E-2	4.191494E-2	-1.013123E+1	1.712873E-2	1.183011E-2	7.968532E-2	3.927877E-2
10/19/2017  17:46:32.775803	1.022767E-1	5.561801E-3	1.646291E-2	-1.014396E+1	2.477858E-2	1.946206E-2	6.951371E-2	3.164702E-2
10/19/2017  17:46:32.776803	2.827585E-1	1.828100E-2	1.646291E-2	-1.014142E+1	1.202884E-2	1.946206E-2	7.205661E-2	3.164702E-2
10/19/2017  17:46:32.777803	7.631961E-1	3.017961E-3	1.646291E-2	-1.014651E+1	2.477858E-2	2.200605E-2	7.459952E-2	3.164702E-2
10/19/2017  17:46:32.778803	1.937886E-1	1.064948E-2	1.900811E-2	-1.013378E+1	1.967868E-2	3.218199E-2	7.714242E-2	3.673486E-2
10/19/2017  17:46:32.779803	-3.451149E-1	2.845637E-2	1.646291E-2	-1.014142E+1	1.967868E-2	2.709402E-2	7.459952E-2	2.147136E-2
10/19/2017  17:46:32.780803	-3.552829E-1	1.064948E-2	1.900811E-2	-1.014142E+1	1.457878E-2	1.183011E-2	7.968532E-2	2.910311E-2
10/19/2017  17:46:32.781803	-1.493811E-1	-4.613560E-3	1.391770E-2	-1.013632E+1	3.497837E-2	1.437409E-2	6.188501E-2	3.673486E-2
10/19/2017  17:46:32.782803	6.414672E-2	1.828100E-2	6.282096E-3	-1.013887E+1	2.222863E-2	2.709402E-2	7.459952E-2	3.927877E-2
10/19/2017  17:46:32.783803	-5.278517E-2	1.064948E-2	2.155331E-2	-1.013632E+1	3.242842E-2	1.946206E-2	8.477112E-2	3.673486E-2
10/19/2017  17:46:32.784803	-2.739390E-1	5.561801E-3	2.155331E-2	-1.012869E+1	1.712873E-2	1.691808E-2	6.442791E-2	3.927877E-2
10/19/2017  17:46:32.785803	-4.722148E-1	1.573716E-2	8.827299E-3	-1.013378E+1	1.457878E-2	1.691808E-2	6.697081E-2	1.638352E-2
10/19/2017  17:46:32.786803	-5.103448E-1	1.573716E-2	1.900811E-2	-1.014905E+1	1.712873E-2	1.946206E-2	7.968532E-2	3.164702E-2
10/19/2017  17:46:32.787803	-8.328914E-2	8.105642E-3	2.155331E-2	-1.012869E+1	2.477858E-2	1.691808E-2	7.714242E-2	4.691052E-2
10/19/2017  17:46:32.788803	2.293766E-1	1.828100E-2	1.391770E-2	-1.015160E+1	2.477858E-2	2.455003E-2	7.205661E-2	3.419094E-2
10/19/2017  17:46:32.789803	1.215672E+0	1.064948E-2	1.646291E-2	-1.013123E+1	2.222863E-2	2.200605E-2	7.205661E-2	1.638352E-2
10/19/2017  17:46:32.790803	8.953800E-1	8.105642E-3	1.900811E-2	-1.015415E+1	2.477858E-2	6.742135E-3	7.205661E-2	3.927877E-2
10/19/2017  17:46:32.791803	9.719269E-2	2.845637E-2	1.137250E-2	-1.013632E+1	2.222863E-2	2.963800E-2	7.205661E-2	3.419094E-2
								
10/19/2017  17:46:32.792803	-5.510167E-1	2.082484E-2	1.900811E-2	-1.014142E+1	1.967868E-2	3.218199E-2	7.968532E-2	3.164702E-2
10/19/2017  17:46:32.793803	-4.290008E-1	8.105642E-3	3.936974E-2	-1.013378E+1	1.967868E-2	1.437409E-2	7.205661E-2	3.673486E-2
10/19/2017  17:46:32.794803	-6.247347E-1	8.105642E-3	1.137250E-2	-1.014651E+1	2.477858E-2	1.946206E-2	7.205661E-2	3.419094E-2
10/19/2017  17:46:32.795803	-3.832449E-1	1.828100E-2	1.137250E-2	-1.014142E+1	1.202884E-2	2.709402E-2	7.459952E-2	3.164702E-2
10/19/2017  17:46:32.796803	6.920202E-1	1.828100E-2	1.646291E-2	-1.014396E+1	1.712873E-2	1.946206E-2	7.459952E-2	3.164702E-2
10/19/2017  17:46:32.797803	1.136870E+0	8.105642E-3	1.137250E-2	-1.013378E+1	2.732853E-2	3.218199E-2	7.205661E-2	3.419094E-2
10/19/2017  17:46:32.798803	9.513039E-1	8.105642E-3	1.900811E-2	-1.013887E+1	1.712873E-2	3.218199E-2	7.459952E-2	2.147136E-2
10/19/2017  17:46:32.799803	-2.764810E-1	1.319332E-2	1.646291E-2	-1.014142E+1	2.222863E-2	4.198150E-3	7.968532E-2	2.910311E-2
10/19/2017  17:46:32.800803	-2.459770E-1	2.336868E-2	1.900811E-2	-1.014142E+1	6.928941E-3	2.455003E-2	6.951371E-2	3.673486E-2
10/19/2017  17:46:32.801803	-2.917330E-1	1.573716E-2	2.155331E-2	-1.014142E+1	1.967868E-2	2.963800E-2	7.459952E-2	2.910311E-2
10/19/2017  17:46:32.802803	-9.091514E-2	1.319332E-2	2.409852E-2	-1.013378E+1	2.477858E-2	1.691808E-2	8.477112E-2	3.419094E-2
10/19/2017  17:46:32.803803	1.099027E-1	1.064948E-2	2.155331E-2	-1.012869E+1	1.712873E-2	1.946206E-2	7.459952E-2	2.910311E-2
10/19/2017  17:46:32.804803	3.110075E-2	1.064948E-2	2.155331E-2	-1.014142E+1	2.987847E-2	1.946206E-2	6.951371E-2	3.164702E-2
10/19/2017  17:46:32.805803	1.480326E-1	1.573716E-2	2.409852E-2	-1.013378E+1	1.457878E-2	2.963800E-2	7.968532E-2	3.164702E-2
10/19/2017  17:46:32.806803	2.093276E-2	1.064948E-2	1.391770E-2	-1.013632E+1	1.967868E-2	1.691808E-2	7.459952E-2	2.147136E-2
10/19/2017  17:46:32.807803	-5.103448E-1	8.105642E-3	1.900811E-2	-1.012614E+1	1.712873E-2	2.455003E-2	6.697081E-2	2.910311E-2
10/19/2017  17:46:32.808803	-3.781609E-1	8.105642E-3	1.137250E-2	-1.014396E+1	1.967868E-2	2.200605E-2	7.459952E-2	1.638352E-2
10/19/2017  17:46:32.809803	-1.465521E-2	8.105642E-3	1.391770E-2	-1.014396E+1	2.222863E-2	1.183011E-2	7.205661E-2	3.673486E-2
10/19/2017  17:46:32.810803	2.192086E-1	1.573716E-2	1.900811E-2	-1.013632E+1	2.987847E-2	2.455003E-2	6.951371E-2	3.164702E-2
10/19/2017  17:46:32.811803	5.064543E-1	2.082484E-2	1.900811E-2	-1.014651E+1	1.967868E-2	2.963800E-2	7.459952E-2	2.401527E-2
10/19/2017  17:46:32.812803	4.657824E-1	4.741205E-4	2.155331E-2	-1.013123E+1	1.712873E-2	1.183011E-2	7.968532E-2	3.673486E-2
10/19/2017  17:46:32.813803	2.293766E-1	1.319332E-2	1.391770E-2	-1.013887E+1	2.987847E-2	2.455003E-2	6.697081E-2	3.164702E-2
10/19/2017  17:46:32.814803	1.582006E-1	1.828100E-2	2.664372E-2	-1.013887E+1	1.202884E-2	2.200605E-2	7.205661E-2	3.164702E-2
10/19/2017  17:46:32.815803	-3.171529E-1	1.828100E-2	1.900811E-2	-1.014142E+1	1.457878E-2	1.946206E-2	7.205661E-2	3.164702E-2
10/19/2017  17:46:32.816803	-8.074715E-2	8.105642E-3	1.646291E-2	-1.013378E+1	2.222863E-2	1.183011E-2	7.205661E-2	3.164702E-2
10/19/2017  17:46:32.817803	1.073607E-1	2.336868E-2	1.391770E-2	-1.014651E+1	1.712873E-2	2.963800E-2	7.205661E-2	2.147136E-2
10/19/2017  17:46:32.818803	7.431471E-2	1.573716E-2	2.155331E-2	-1.013887E+1	1.457878E-2	6.742135E-3	7.714242E-2	2.147136E-2
10/19/2017  17:46:32.819803	8.194071E-2	-2.069720E-3	2.155331E-2	-1.013632E+1	1.457878E-2	1.183011E-2	7.205661E-2	3.673486E-2
10/19/2017  17:46:32.820803	6.160473E-2	1.828100E-2	1.646291E-2	-1.013632E+1	2.477858E-2	2.709402E-2	6.951371E-2	3.164702E-2
10/19/2017  17:46:32.821803	-2.027630E-1	1.573716E-2	2.409852E-2	-1.013632E+1	1.829045E-3	2.709402E-2	8.222822E-2	2.910311E-2
10/19/2017  17:46:32.822803	-1.211321E-2	1.064948E-2	1.646291E-2	-1.013378E+1	1.712873E-2	1.437409E-2	7.459952E-2	3.673486E-2
10/19/2017  17:46:32.823803	-1.722591E-1	1.319332E-2	1.137250E-2	-1.013632E+1	2.222863E-2	1.946206E-2	7.459952E-2	3.164702E-2
10/19/2017  17:46:32.824803	3.110075E-2	1.064948E-2	1.646291E-2	-1.013378E+1	1.967868E-2	2.963800E-2	7.714242E-2	2.910311E-2
								
10/19/2017  17:46:32.825803	-6.295316E-2	1.828100E-2	1.391770E-2	-1.013887E+1	1.457878E-2	2.200605E-2	7.968532E-2	3.673486E-2
10/19/2017  17:46:32.826803	4.962863E-1	8.105642E-3	1.137250E-2	-1.010832E+1	2.732853E-2	1.946206E-2	6.697081E-2	3.419094E-2
10/19/2017  17:46:32.827803	4.276524E-1	1.319332E-2	1.391770E-2	-1.014651E+1	2.222863E-2	2.455003E-2	7.459952E-2	2.655919E-2
10/19/2017  17:46:32.828803	3.138778E-3	1.319332E-2	1.646291E-2	-1.014905E+1	2.222863E-2	9.286120E-3	7.714242E-2	3.673486E-2
10/19/2017  17:46:32.829803	5.680776E-3	1.828100E-2	1.137250E-2	-1.013887E+1	2.987847E-2	1.946206E-2	6.951371E-2	3.164702E-2
10/19/2017  17:46:32.830803	7.431471E-2	1.064948E-2	1.900811E-2	-1.014651E+1	2.222863E-2	2.200605E-2	7.459952E-2	3.419094E-2
10/19/2017  17:46:32.831803	1.302387E-1	4.741205E-4	1.137250E-2	-1.012869E+1	1.712873E-2	1.691808E-2	7.205661E-2	3.673486E-2
10/19/2017  17:46:32.832803	1.632846E-1	1.319332E-2	1.137250E-2	-1.014142E+1	2.732853E-2	2.200605E-2	5.679920E-2	1.892744E-2
10/19/2017  17:46:32.833803	1.048187E-1	1.828100E-2	4.191494E-2	-1.014142E+1	1.457878E-2	2.709402E-2	7.205661E-2	2.910311E-2
10/19/2017  17:46:32.834803	-3.095269E-1	1.319332E-2	1.391770E-2	-1.012614E+1	1.967868E-2	1.437409E-2	7.205661E-2	3.927877E-2
10/19/2017  17:46:32.835803	-8.583114E-2	1.064948E-2	1.137250E-2	-1.013887E+1	3.752832E-2	1.946206E-2	6.697081E-2	2.147136E-2
10/19/2017  17:46:32.836803	5.652073E-2	3.017961E-3	1.646291E-2	-1.013632E+1	2.222863E-2	1.946206E-2	7.205661E-2	3.164702E-2
10/19/2017  17:46:32.837803	2.929265E-1	5.561801E-3	1.900811E-2	-1.012869E+1	2.222863E-2	1.946206E-2	7.459952E-2	3.164702E-2
10/19/2017  17:46:32.838803	-3.171529E-1	2.591253E-2	1.137250E-2	-1.014142E+1	3.497837E-2	2.963800E-2	6.697081E-2	2.147136E-2
10/19/2017  17:46:32.839803	1.076477E-2	1.828100E-2	2.409852E-2	-1.014396E+1	1.457878E-2	2.963800E-2	7.714242E-2	3.673486E-2
10/19/2017  17:46:32.840803	-1.211321E-2	-1.224508E-2	2.409852E-2	-1.013378E+1	1.967868E-2	1.691808E-2	6.697081E-2	3.164702E-2
10/19/2017  17:46:32.841803	2.827585E-1	1.064948E-2	6.282096E-3	-1.014142E+1	2.732853E-2	1.691808E-2	6.951371E-2	3.164702E-2
10/19/2017  17:46:32.842803	3.158045E-1	1.064948E-2	1.646291E-2	-1.014651E+1	2.732853E-2	2.709402E-2	8.222822E-2	3.673486E-2
10/19/2017  17:46:32.843803	1.073607E-1	8.105642E-3	2.409852E-2	-1.011850E+1	1.967868E-2	1.691808E-2	7.714242E-2	3.673486E-2
10/19/2017  17:46:32.844803	-7.820515E-2	1.828100E-2	1.391770E-2	-1.013887E+1	2.987847E-2	2.455003E-2	7.459952E-2	4.182269E-2
10/19/2017  17:46:32.845803	-5.024317E-2	1.064948E-2	2.155331E-2	-1.014651E+1	1.457878E-2	1.691808E-2	7.968532E-2	3.164702E-2
10/19/2017  17:46:32.846803	9.210870E-2	5.561801E-3	1.900811E-2	-1.013123E+1	1.712873E-2	1.946206E-2	7.459952E-2	4.182269E-2
10/19/2017  17:46:32.847803	9.360519E-1	1.319332E-2	1.646291E-2	-1.011850E+1	1.967868E-2	1.946206E-2	7.205661E-2	2.910311E-2
10/19/2017  17:46:32.848803	3.005525E-1	1.573716E-2	2.409852E-2	-1.013632E+1	2.222863E-2	1.691808E-2	7.459952E-2	3.164702E-2
10/19/2017  17:46:32.849803	2.471706E-1	1.064948E-2	1.900811E-2	-1.013632E+1	2.222863E-2	2.709402E-2	6.697081E-2	3.673486E-2
10/19/2017  17:46:32.850803	-9.599913E-2	5.561801E-3	3.736893E-3	-1.013887E+1	2.732853E-2	1.691808E-2	6.951371E-2	2.655919E-2
10/19/2017  17:46:32.851803	-3.552829E-1	1.573716E-2	2.664372E-2	-1.014905E+1	1.712873E-2	2.963800E-2	8.477112E-2	2.910311E-2
10/19/2017  17:46:32.852803	-6.349026E-1	8.105642E-3	2.664372E-2	-1.014142E+1	2.732853E-2	1.946206E-2	7.205661E-2	4.182269E-2
10/19/2017  17:46:32.853803	-5.561007E-1	1.828100E-2	1.900811E-2	-1.013378E+1	1.712873E-2	2.455003E-2	7.205661E-2	3.164702E-2
10/19/2017  17:46:32.854803	-4.261718E-2	1.064948E-2	1.646291E-2	-1.013632E+1	2.222863E-2	1.691808E-2	7.968532E-2	2.655919E-2
10/19/2017  17:46:32.855803	7.682801E-1	5.561801E-3	1.646291E-2	-1.013632E+1	2.222863E-2	1.437409E-2	7.205661E-2	3.673486E-2
10/19/2017  17:46:32.856803	1.230924E+0	1.573716E-2	1.137250E-2	-1.013887E+1	2.732853E-2	2.455003E-2	7.205661E-2	2.910311E-2
10/19/2017  17:46:32.857803	9.157160E-1	3.354405E-2	1.900811E-2	-1.014905E+1	1.457878E-2	2.709402E-2	8.222822E-2	2.910311E-2
								
10/19/2017  17:46:32.858803	3.132625E-1	8.105642E-3	1.900811E-2	-1.013632E+1	1.967868E-2	1.183011E-2	7.459952E-2	1.892744E-2
10/19/2017  17:46:32.859803	-1.973920E-2	1.064948E-2	1.646291E-2	-1.013378E+1	1.457878E-2	1.946206E-2	6.442791E-2	2.147136E-2
10/19/2017  17:46:32.860803	-7.162466E-1	1.828100E-2	2.155331E-2	-1.014905E+1	1.712873E-2	1.946206E-2	7.968532E-2	2.910311E-2
10/19/2017  17:46:32.861803	-1.303448E+0	8.105642E-3	2.155331E-2	-1.013632E+1	1.967868E-2	1.437409E-2	7.714242E-2	3.164702E-2
10/19/2017  17:46:32.862803	6.615162E-1	1.064948E-2	2.155331E-2	-1.013123E+1	2.732853E-2	2.455003E-2	7.459952E-2	2.655919E-2
10/19/2017  17:46:32.863803	1.968103E+0	2.082484E-2	2.664372E-2	-1.014651E+1	6.928941E-3	2.963800E-2	7.459952E-2	1.638352E-2
10/19/2017  17:46:32.864803	4.149424E-1	8.105642E-3	1.900811E-2	-1.012614E+1	1.457878E-2	1.437409E-2	7.459952E-2	3.419094E-2
10/19/2017  17:46:32.865803	-4.467948E-1	8.105642E-3	1.391770E-2	-1.014396E+1	3.242842E-2	2.200605E-2	6.697081E-2	3.927877E-2
10/19/2017  17:46:32.866803	3.946064E-1	1.828100E-2	2.664372E-2	-1.013123E+1	1.457878E-2	2.709402E-2	7.714242E-2	2.655919E-2
10/19/2017  17:46:32.867803	5.064543E-1	1.064948E-2	3.173413E-2	-1.012869E+1	1.712873E-2	1.437409E-2	8.222822E-2	3.673486E-2
10/19/2017  17:46:32.868803	3.158045E-1	1.064948E-2	1.137250E-2	-1.014142E+1	2.477858E-2	2.455003E-2	6.442791E-2	3.419094E-2
10/19/2017  17:46:32.869803	-6.323606E-1	1.319332E-2	1.137250E-2	-1.014142E+1	1.712873E-2	2.200605E-2	8.222822E-2	2.401527E-2
10/19/2017  17:46:32.870803	-7.566315E-2	1.064948E-2	2.409852E-2	-1.012869E+1	1.967868E-2	1.946206E-2	7.205661E-2	3.673486E-2
10/19/2017  17:46:32.871803	6.160473E-2	1.573716E-2	1.900811E-2	-1.013378E+1	3.242842E-2	2.200605E-2	6.951371E-2	3.164702E-2
10/19/2017  17:46:32.872803	-1.442971E-1	1.319332E-2	1.646291E-2	-1.014651E+1	1.967868E-2	1.946206E-2	7.205661E-2	3.164702E-2
10/19/2017  17:46:32.873803	-3.349469E-1	1.064948E-2	3.736893E-3	-1.014142E+1	1.712873E-2	6.742135E-3	7.968532E-2	3.419094E-2
10/19/2017  17:46:32.874803	2.268346E-1	8.105642E-3	1.391770E-2	-1.014396E+1	2.732853E-2	2.200605E-2	6.697081E-2	3.419094E-2
10/19/2017  17:46:32.875803	6.668872E-2	1.828100E-2	2.155331E-2	-1.013632E+1	2.477858E-2	3.981394E-2	7.714242E-2	3.673486E-2
10/19/2017  17:46:32.876803	-2.637710E-1	2.082484E-2	1.646291E-2	-1.013887E+1	2.477858E-2	2.200605E-2	7.459952E-2	3.673486E-2
10/19/2017  17:46:32.877803	-2.459770E-1	1.064948E-2	1.900811E-2	-1.014651E+1	1.712873E-2	1.946206E-2	7.205661E-2	3.419094E-2
10/19/2017  17:46:32.878803	-5.408487E-1	8.105642E-3	1.646291E-2	-1.015160E+1	1.457878E-2	2.455003E-2	6.951371E-2	2.401527E-2
10/19/2017  17:46:32.879803	-3.629089E-1	1.064948E-2	1.900811E-2	-1.013887E+1	1.457878E-2	1.946206E-2	7.968532E-2	2.910311E-2
10/19/2017  17:46:32.880803	3.742704E-1	1.064948E-2	1.646291E-2	-1.012869E+1	2.987847E-2	1.437409E-2	7.205661E-2	4.436661E-2
10/19/2017  17:46:32.881803	1.099027E-1	1.064948E-2	1.391770E-2	-1.013378E+1	2.222863E-2	2.455003E-2	6.951371E-2	2.910311E-2
10/19/2017  17:46:32.882803	-2.917330E-1	1.064948E-2	1.391770E-2	-1.013632E+1	2.222863E-2	2.200605E-2	7.968532E-2	1.892744E-2
10/19/2017  17:46:32.883803	-3.753318E-2	8.105642E-3	8.827299E-3	-1.013887E+1	1.967868E-2	2.455003E-2	7.459952E-2	3.927877E-2
10/19/2017  17:46:32.884803	-9.571210E-3	1.319332E-2	1.646291E-2	-1.013378E+1	1.967868E-2	2.200605E-2	7.205661E-2	2.910311E-2
10/19/2017  17:46:32.885803	4.683244E-1	2.082484E-2	1.900811E-2	-1.013378E+1	2.222863E-2	3.218199E-2	7.968532E-2	2.655919E-2
10/19/2017  17:46:32.886803	3.691864E-1	1.828100E-2	2.918892E-2	-1.013632E+1	1.712873E-2	2.455003E-2	8.222822E-2	3.164702E-2
10/19/2017  17:46:32.887803	2.776745E-1	5.561801E-3	1.646291E-2	-1.013378E+1	1.967868E-2	1.946206E-2	6.951371E-2	3.673486E-2
10/19/2017  17:46:32.888803	-1.973920E-2	1.064948E-2	6.282096E-3	-1.013887E+1	2.222863E-2	1.946206E-2	7.205661E-2	2.401527E-2
10/19/2017  17:46:32.889803	-4.213748E-1	1.319332E-2	1.646291E-2	-1.013632E+1	2.222863E-2	2.455003E-2	6.951371E-2	3.164702E-2
10/19/2017  17:46:32.890803	-5.637267E-1	5.561801E-3	2.409852E-2	-1.013887E+1	2.477858E-2	1.437409E-2	7.205661E-2	4.182269E-2
								
10/19/2017  17:46:32.891803	-4.620468E-1	8.105642E-3	1.137250E-2	-1.013887E+1	2.477858E-2	1.946206E-2	6.697081E-2	3.164702E-2
10/19/2017  17:46:32.892803	3.564765E-1	1.319332E-2	1.646291E-2	-1.014651E+1	2.222863E-2	1.691808E-2	7.205661E-2	2.655919E-2
10/19/2017  17:46:32.893803	5.522103E-1	1.064948E-2	2.664372E-2	-1.012869E+1	1.457878E-2	1.946206E-2	7.968532E-2	2.655919E-2
10/19/2017  17:46:32.894803	3.259725E-1	1.064948E-2	1.900811E-2	-1.013632E+1	1.967868E-2	3.218199E-2	7.459952E-2	3.673486E-2
10/19/2017  17:46:32.895803	1.276967E-1	2.591253E-2	1.646291E-2	-1.013378E+1	1.712873E-2	2.709402E-2	7.459952E-2	2.401527E-2
10/19/2017  17:46:32.896803	2.293766E-1	1.064948E-2	2.664372E-2	-1.013887E+1	1.202884E-2	1.183011E-2	7.714242E-2	3.164702E-2
10/19/2017  17:46:32.897803	3.310565E-1	4.741205E-4	1.900811E-2	-1.013632E+1	1.712873E-2	1.946206E-2	7.205661E-2	3.927877E-2
10/19/2017  17:46:32.898803	8.956670E-2	1.064948E-2	1.137250E-2	-1.013887E+1	2.477858E-2	1.946206E-2	6.951371E-2	2.401527E-2
10/19/2017  17:46:32.899803	6.668872E-2	2.082484E-2	2.664372E-2	-1.013887E+1	3.752832E-2	2.963800E-2	8.477112E-2	3.164702E-2
10/19/2017  17:46:32.900803	2.601676E-2	1.064948E-2	3.427933E-2	-1.014142E+1	1.457878E-2	1.183011E-2	7.968532E-2	3.673486E-2
10/19/2017  17:46:32.901803	-5.532717E-2	1.064948E-2	1.137250E-2	-1.013632E+1	2.477858E-2	2.200605E-2	6.188501E-2	2.147136E-2
10/19/2017  17:46:32.902803	-8.583114E-2	1.828100E-2	3.736893E-3	-1.015669E+1	2.222863E-2	1.946206E-2	7.205661E-2	3.164702E-2
10/19/2017  17:46:32.903803	-1.973920E-2	1.319332E-2	2.155331E-2	-1.013123E+1	1.202884E-2	2.200605E-2	7.968532E-2	4.691052E-2
10/19/2017  17:46:32.904803	3.110075E-2	5.561801E-3	1.646291E-2	-1.011596E+1	2.477858E-2	1.183011E-2	6.442791E-2	2.910311E-2
10/19/2017  17:46:32.905803	2.166666E-1	1.573716E-2	1.137250E-2	-1.013887E+1	3.242842E-2	2.709402E-2	7.205661E-2	1.383961E-2
10/19/2017  17:46:32.906803	1.785366E-1	1.573716E-2	2.409852E-2	-1.015415E+1	1.457878E-2	1.946206E-2	7.205661E-2	2.910311E-2
10/19/2017  17:46:32.907803	1.276967E-1	-4.613560E-3	1.391770E-2	-1.012869E+1	2.987847E-2	1.946206E-2	6.697081E-2	3.164702E-2
10/19/2017  17:46:32.908803	3.818964E-1	1.828100E-2	1.137250E-2	-1.014142E+1	2.987847E-2	2.963800E-2	6.697081E-2	2.401527E-2
10/19/2017  17:46:32.909803	5.801723E-1	1.828100E-2	3.173413E-2	-1.013887E+1	2.222863E-2	1.946206E-2	7.459952E-2	2.910311E-2
10/19/2017  17:46:32.910803	2.853005E-1	4.741205E-4	1.391770E-2	-1.013123E+1	1.967868E-2	1.183011E-2	7.459952E-2	3.673486E-2
10/19/2017  17:46:32.911803	-2.815650E-1	1.064948E-2	6.282096E-3	-1.014142E+1	1.967868E-2	9.286120E-3	6.951371E-2	2.401527E-2
10/19/2017  17:46:32.912803	-4.061229E-1	2.082484E-2	1.900811E-2	-1.014905E+1	2.222863E-2	2.709402E-2	7.714242E-2	2.655919E-2
10/19/2017  17:46:32.913803	-4.900088E-1	5.561801E-3	2.155331E-2	-1.013632E+1	1.457878E-2	4.198150E-3	7.968532E-2	3.927877E-2
10/19/2017  17:46:32.914803	-2.053050E-1	5.561801E-3	1.646291E-2	-1.012869E+1	1.712873E-2	1.437409E-2	7.459952E-2	3.164702E-2
10/19/2017  17:46:32.915803	-2.663130E-1	1.064948E-2	1.137250E-2	-1.014651E+1	2.732853E-2	1.183011E-2	6.442791E-2	1.892744E-2
10/19/2017  17:46:32.916803	-3.069849E-1	3.017961E-3	2.409852E-2	-1.014396E+1	1.457878E-2	2.709402E-2	7.968532E-2	2.147136E-2
10/19/2017  17:46:32.917803	8.194071E-2	5.561801E-3	2.155331E-2	-1.013123E+1	1.457878E-2	1.691808E-2	7.968532E-2	3.673486E-2
10/19/2017  17:46:32.918803	8.852120E-1	1.319332E-2	1.137250E-2	-1.013632E+1	4.262821E-2	1.691808E-2	7.205661E-2	4.182269E-2
10/19/2017  17:46:32.919803	1.515627E+0	1.573716E-2	2.155331E-2	-1.013887E+1	2.477858E-2	2.963800E-2	7.459952E-2	2.401527E-2
10/19/2017  17:46:32.920803	9.513039E-1	1.064948E-2	2.409852E-2	-1.013632E+1	1.829045E-3	2.200605E-2	7.205661E-2	2.401527E-2
10/19/2017  17:46:32.921803	3.310565E-1	5.561801E-3	1.391770E-2	-1.013887E+1	2.477858E-2	1.946206E-2	7.714242E-2	3.419094E-2
10/19/2017  17:46:32.922803	-2.536030E-1	1.064948E-2	1.646291E-2	-1.013887E+1	2.477858E-2	2.455003E-2	7.205661E-2	3.419094E-2
10/19/2017  17:46:32.923803	-1.900530E-1	1.573716E-2	2.409852E-2	-1.013632E+1	1.457878E-2	2.709402E-2	7.459952E-2	2.910311E-2
								
10/19/2017  17:46:32.924803	9.210870E-2	5.561801E-3	1.391770E-2	-1.012869E+1	1.967868E-2	1.183011E-2	7.459952E-2	3.673486E-2
10/19/2017  17:46:32.925803	-8.583114E-2	1.319332E-2	1.137250E-2	-1.015669E+1	2.987847E-2	1.183011E-2	6.188501E-2	3.164702E-2
10/19/2017  17:46:32.926803	-3.832449E-1	1.828100E-2	1.900811E-2	-1.015160E+1	2.222863E-2	2.963800E-2	7.714242E-2	2.401527E-2
10/19/2017  17:46:32.927803	-3.603669E-1	1.573716E-2	2.409852E-2	-1.014142E+1	1.457878E-2	1.946206E-2	8.731403E-2	3.419094E-2
10/19/2017  17:46:32.928803	-3.934129E-1	1.319332E-2	2.664372E-2	-1.013378E+1	2.477858E-2	1.437409E-2	7.459952E-2	2.910311E-2
10/19/2017  17:46:32.929803	-4.162908E-1	1.828100E-2	1.137250E-2	-1.013887E+1	2.477858E-2	2.963800E-2	5.934210E-2	2.655919E-2
10/19/2017  17:46:32.930803	-3.679929E-1	1.828100E-2	3.682453E-2	-1.013887E+1	9.478889E-3	2.455003E-2	7.968532E-2	3.164702E-2
10/19/2017  17:46:32.931803	-1.265031E-1	1.828100E-2	1.900811E-2	-1.013632E+1	1.967868E-2	1.946206E-2	7.714242E-2	3.673486E-2
10/19/2017  17:46:32.932803	9.465070E-2	1.573716E-2	1.137250E-2	-1.013887E+1	3.242842E-2	2.709402E-2	6.951371E-2	2.401527E-2
10/19/2017  17:46:32.933803	1.531166E-1	1.319332E-2	1.900811E-2	-1.013632E+1	1.457878E-2	2.455003E-2	7.205661E-2	2.147136E-2
10/19/2017  17:46:32.934803	2.268346E-1	1.064948E-2	2.155331E-2	-1.012869E+1	1.457878E-2	9.286120E-3	7.968532E-2	3.419094E-2
10/19/2017  17:46:32.935803	4.301944E-1	-2.069720E-3	1.900811E-2	-1.014396E+1	1.712873E-2	1.437409E-2	7.205661E-2	3.673486E-2
10/19/2017  17:46:32.936803	4.225684E-1	1.573716E-2	1.137250E-2	-1.013123E+1	1.712873E-2	2.455003E-2	7.205661E-2	2.910311E-2
10/19/2017  17:46:32.937803	2.827585E-1	3.017961E-3	1.646291E-2	-1.012869E+1	2.732853E-2	1.946206E-2	7.968532E-2	2.655919E-2
10/19/2017  17:46:32.938803	1.839076E-2	1.319332E-2	2.409852E-2	-1.013378E+1	1.457878E-2	1.691808E-2	7.968532E-2	3.927877E-2
10/19/2017  17:46:32.939803	2.522546E-1	5.561801E-3	1.137250E-2	-1.012869E+1	1.202884E-2	2.200605E-2	6.951371E-2	3.927877E-2
10/19/2017  17:46:32.940803	3.615605E-1	1.064948E-2	2.155331E-2	-1.013632E+1	1.967868E-2	2.963800E-2	7.714242E-2	2.401527E-2
10/19/2017  17:46:32.941803	1.429487E-1	1.828100E-2	2.664372E-2	-1.013887E+1	1.457878E-2	1.946206E-2	8.222822E-2	2.655919E-2
10/19/2017  17:46:32.942803	-5.024317E-2	3.017961E-3	8.827299E-3	-1.011596E+1	1.967868E-2	1.946206E-2	7.205661E-2	3.673486E-2
10/19/2017  17:46:32.943803	-7.566315E-2	1.064948E-2	8.827299E-3	-1.013378E+1	2.222863E-2	2.709402E-2	6.951371E-2	1.129569E-2
10/19/2017  17:46:32.944803	-3.753318E-2	1.828100E-2	2.155331E-2	-1.015669E+1	2.477858E-2	2.455003E-2	6.697081E-2	2.910311E-2
10/19/2017  17:46:32.945803	1.480326E-1	1.064948E-2	2.155331E-2	-1.014142E+1	2.477858E-2	2.455003E-2	7.205661E-2	3.673486E-2
10/19/2017  17:46:32.946803	2.217506E-1	8.105642E-3	1.900811E-2	-1.014142E+1	1.967868E-2	2.200605E-2	5.679920E-2	2.655919E-2
10/19/2017  17:46:32.947803	-9.091514E-2	5.561801E-3	1.137250E-2	-1.014142E+1	1.712873E-2	2.709402E-2	7.205661E-2	2.147136E-2
10/19/2017  17:46:32.948803	-3.146109E-1	1.573716E-2	2.155331E-2	-1.013632E+1	1.712873E-2	2.200605E-2	7.968532E-2	3.419094E-2
10/19/2017  17:46:32.949803	-2.790230E-1	5.561801E-3	3.427933E-2	-1.013632E+1	1.967868E-2	2.455003E-2	7.205661E-2	3.673486E-2
10/19/2017  17:46:32.950803	7.225241E-1	2.082484E-2	1.137250E-2	-1.013378E+1	2.987847E-2	1.946206E-2	7.205661E-2	3.164702E-2
10/19/2017  17:46:32.951803	1.574093E+0	1.064948E-2	1.646291E-2	-1.014142E+1	2.732853E-2	3.726996E-2	7.205661E-2	2.655919E-2
10/19/2017  17:46:32.952803	1.159748E+0	1.064948E-2	1.900811E-2	-1.013378E+1	1.202884E-2	2.200605E-2	7.205661E-2	3.164702E-2
10/19/2017  17:46:32.953803	2.039566E-1	1.064948E-2	1.646291E-2	-1.013123E+1	2.222863E-2	4.198150E-3	7.205661E-2	3.419094E-2
10/19/2017  17:46:32.954803	-1.189058E+0	2.845637E-2	1.137250E-2	-1.014142E+1	3.497837E-2	1.946206E-2	7.459952E-2	3.164702E-2
10/19/2017  17:46:32.955803	-7.340406E-1	2.082484E-2	2.155331E-2	-1.014651E+1	2.222863E-2	2.963800E-2	7.205661E-2	3.419094E-2
10/19/2017  17:46:32.956803	-1.163351E-1	1.319332E-2	2.155331E-2	-1.013632E+1	9.478889E-3	2.709402E-2	6.951371E-2	2.655919E-2
								
10/19/2017  17:46:32.957803	-2.990719E-2	8.105642E-3	1.137250E-2	-1.014142E+1	2.987847E-2	2.200605E-2	6.951371E-2	3.164702E-2
10/19/2017  17:46:32.958803	-2.053050E-1	1.319332E-2	1.646291E-2	-1.012869E+1	1.202884E-2	3.218199E-2	8.477112E-2	2.401527E-2
10/19/2017  17:46:32.959803	-4.086648E-1	8.105642E-3	1.900811E-2	-1.012105E+1	1.712873E-2	1.691808E-2	7.968532E-2	3.673486E-2
10/19/2017  17:46:32.960803	-3.629089E-1	1.064948E-2	1.900811E-2	-1.013632E+1	2.732853E-2	1.946206E-2	7.205661E-2	4.182269E-2
10/19/2017  17:46:32.961803	-3.654509E-1	1.064948E-2	1.900811E-2	-1.014905E+1	1.967868E-2	2.455003E-2	7.459952E-2	3.164702E-2
10/19/2017  17:46:32.962803	-1.620911E-1	1.064948E-2	2.155331E-2	-1.013632E+1	1.457878E-2	2.455003E-2	7.459952E-2	1.892744E-2
10/19/2017  17:46:32.963803	2.598805E-1	8.105642E-3	1.137250E-2	-1.012869E+1	2.732853E-2	9.286120E-3	7.205661E-2	3.164702E-2
10/19/2017  17:46:32.964803	1.149867E-1	2.591253E-2	1.900811E-2	-1.013887E+1	2.987847E-2	2.455003E-2	7.205661E-2	2.655919E-2
10/19/2017  17:46:32.965803	2.700485E-1	1.064948E-2	2.155331E-2	-1.013632E+1	1.457878E-2	2.200605E-2	7.205661E-2	3.164702E-2
10/19/2017  17:46:32.966803	3.183465E-1	-2.069720E-3	6.282096E-3	-1.013123E+1	1.457878E-2	1.183011E-2	7.205661E-2	3.673486E-2
10/19/2017  17:46:32.967803	1.276967E-1	1.319332E-2	1.137250E-2	-1.013632E+1	3.242842E-2	1.946206E-2	6.188501E-2	3.164702E-2
10/19/2017  17:46:32.968803	8.956670E-2	2.336868E-2	1.646291E-2	-1.014396E+1	2.222863E-2	2.455003E-2	7.459952E-2	3.419094E-2
10/19/2017  17:46:32.969803	-2.332670E-1	2.082484E-2	1.900811E-2	-1.013632E+1	1.967868E-2	1.946206E-2	7.459952E-2	3.164702E-2
10/19/2017  17:46:32.970803	-2.027630E-1	1.573716E-2	1.900811E-2	-1.013632E+1	1.967868E-2	1.691808E-2	6.951371E-2	2.910311E-2
10/19/2017  17:46:32.971803	4.381074E-2	2.591253E-2	1.137250E-2	-1.014905E+1	2.987847E-2	2.709402E-2	6.697081E-2	2.655919E-2
10/19/2017  17:46:32.972803	1.531166E-1	1.828100E-2	2.664372E-2	-1.014142E+1	1.457878E-2	2.455003E-2	7.968532E-2	2.910311E-2
10/19/2017  17:46:32.973803	7.123561E-1	2.336868E-2	1.391770E-2	-1.012359E+1	2.477858E-2	1.946206E-2	7.714242E-2	3.673486E-2
10/19/2017  17:46:32.974803	4.098584E-1	1.064948E-2	1.137250E-2	-1.013887E+1	2.987847E-2	1.946206E-2	7.205661E-2	3.164702E-2
10/19/2017  17:46:32.975803	-7.029213E-3	2.082484E-2	1.391770E-2	-1.014142E+1	1.457878E-2	2.709402E-2	7.205661E-2	1.892744E-2
10/19/2017  17:46:32.976803	2.293766E-1	1.319332E-2	2.155331E-2	-1.014142E+1	1.457878E-2	1.691808E-2	7.968532E-2	3.164702E-2
10/19/2017  17:46:32.977803	2.601676E-2	5.561801E-3	2.155331E-2	-1.013632E+1	1.712873E-2	1.691808E-2	7.205661E-2	3.673486E-2
10/19/2017  17:46:32.978803	-3.883289E-1	1.828100E-2	1.137250E-2	-1.013123E+1	2.222863E-2	2.455003E-2	6.951371E-2	3.164702E-2
10/19/2017  17:46:32.979803	-9.323164E-1	8.105642E-3	1.137250E-2	-1.013632E+1	2.222863E-2	2.963800E-2	7.968532E-2	2.401527E-2
10/19/2017  17:46:32.980803	-4.798408E-1	5.561801E-3	2.409852E-2	-1.013887E+1	1.712873E-2	1.183011E-2	7.459952E-2	3.673486E-2
10/19/2017  17:46:32.981803	3.335985E-1	3.017961E-3	1.646291E-2	-1.013378E+1	2.477858E-2	1.691808E-2	6.951371E-2	4.436661E-2
10/19/2017  17:46:32.982803	-6.295316E-2	1.828100E-2	1.900811E-2	-1.012105E+1	1.967868E-2	3.218199E-2	7.714242E-2	2.655919E-2
10/19/2017  17:46:32.983803	-3.781609E-1	1.828100E-2	2.155331E-2	-1.013632E+1	1.712873E-2	1.946206E-2	7.968532E-2	3.164702E-2
10/19/2017  17:46:32.984803	-3.120689E-1	5.561801E-3	1.900811E-2	-1.013632E+1	1.967868E-2	2.200605E-2	6.697081E-2	3.673486E-2
10/19/2017  17:46:32.985803	-1.315871E-1	-4.613560E-3	1.191689E-3	-1.013632E+1	2.477858E-2	1.946206E-2	6.951371E-2	2.910311E-2
10/19/2017  17:46:32.986803	1.055526E+0	1.573716E-2	1.900811E-2	-1.014142E+1	2.222863E-2	2.709402E-2	6.697081E-2	3.419094E-2
10/19/2017  17:46:32.987803	2.308731E+0	1.319332E-2	3.682453E-2	-1.013378E+1	1.712873E-2	1.183011E-2	7.968532E-2	3.673486E-2
10/19/2017  17:46:32.988803	1.119076E+0	5.561801E-3	1.137250E-2	-1.012614E+1	2.987847E-2	1.437409E-2	5.934210E-2	3.164702E-2
10/19/2017  17:46:32.989803	-8.328914E-2	1.828100E-2	6.282096E-3	-1.014396E+1	2.222863E-2	1.691808E-2	7.459952E-2	2.147136E-2
								
10/19/2017  17:46:32.990803	-2.586870E-1	8.105642E-3	2.409852E-2	-1.014905E+1	2.987847E-2	2.200605E-2	7.459952E-2	3.164702E-2
10/19/2017  17:46:32.991803	1.327807E-1	5.561801E-3	1.391770E-2	-1.013378E+1	1.967868E-2	3.981394E-2	7.459952E-2	3.419094E-2
10/19/2017  17:46:32.992803	3.818964E-1	2.845637E-2	1.646291E-2	-1.013632E+1	1.712873E-2	1.946206E-2	7.459952E-2	2.147136E-2
10/19/2017  17:46:32.993803	4.861183E-1	1.064948E-2	2.155331E-2	-1.014142E+1	1.712873E-2	2.200605E-2	7.205661E-2	3.164702E-2
10/19/2017  17:46:32.994803	2.039566E-1	1.064948E-2	2.155331E-2	-1.014396E+1	1.967868E-2	1.437409E-2	7.205661E-2	3.673486E-2
10/19/2017  17:46:32.995803	-8.074715E-2	1.319332E-2	1.137250E-2	-1.013887E+1	2.732853E-2	1.946206E-2	6.951371E-2	2.910311E-2
10/19/2017  17:46:32.996803	-2.688550E-1	2.082484E-2	1.391770E-2	-1.014651E+1	3.242842E-2	2.709402E-2	7.714242E-2	2.401527E-2
10/19/2017  17:46:32.997803	-4.620468E-1	8.105642E-3	2.918892E-2	-1.014142E+1	1.457878E-2	1.691808E-2	7.968532E-2	3.927877E-2
10/19/2017  17:46:32.998803	-1.465521E-2	5.561801E-3	1.391770E-2	-1.013378E+1	1.967868E-2	1.946206E-2	5.679920E-2	2.655919E-2
10/19/2017  17:46:32.999803	1.076477E-2	1.064948E-2	8.827299E-3	-1.014651E+1	1.967868E-2	1.946206E-2	7.968532E-2	2.401527E-2
10/19/2017  17:46:33.000803	-3.499119E-2	1.319332E-2	2.918892E-2	-1.013632E+1	1.712873E-2	2.200605E-2	7.968532E-2	4.182269E-2
10/19/2017  17:46:33.001803	9.465070E-2	8.105642E-3	1.646291E-2	-1.011596E+1	2.732853E-2	2.455003E-2	6.188501E-2	3.673486E-2
10/19/2017  17:46:33.002803	1.022767E-1	1.319332E-2	1.391770E-2	-1.014651E+1	2.987847E-2	2.709402E-2	7.205661E-2	2.147136E-2
10/19/2017  17:46:33.003803	1.022767E-1	1.064948E-2	1.646291E-2	-1.015415E+1	1.457878E-2	9.286120E-3	7.205661E-2	3.164702E-2
10/19/2017  17:46:33.004803	-1.137931E-1	5.561801E-3	2.409852E-2	-1.013123E+1	2.477858E-2	1.946206E-2	7.205661E-2	3.927877E-2
10/19/2017  17:46:33.005803	-2.205570E-1	1.064948E-2	1.391770E-2	-1.014396E+1	2.477858E-2	2.455003E-2	7.968532E-2	2.401527E-2
10/19/2017  17:46:33.006803	-3.044429E-1	2.082484E-2	1.137250E-2	-1.014142E+1	1.457878E-2	2.709402E-2	8.222822E-2	2.910311E-2
10/19/2017  17:46:33.007803	-1.748011E-1	4.741205E-4	2.664372E-2	-1.013123E+1	1.457878E-2	1.437409E-2	7.968532E-2	3.927877E-2
10/19/2017  17:46:33.008803	3.463085E-1	1.064948E-2	-1.353514E-3	-1.013632E+1	1.712873E-2	1.691808E-2	6.951371E-2	2.910311E-2
10/19/2017  17:46:33.009803	5.547523E-1	1.828100E-2	1.900811E-2	-1.014142E+1	2.477858E-2	2.455003E-2	7.205661E-2	2.910311E-2
10/19/2017  17:46:33.010803	1.149867E-1	8.105642E-3	2.409852E-2	-1.013887E+1	1.457878E-2	2.963800E-2	6.951371E-2	3.164702E-2
10/19/2017  17:46:33.011803	3.364275E-2	1.064948E-2	1.646291E-2	-1.013887E+1	2.477858E-2	1.946206E-2	7.714242E-2	2.910311E-2
10/19/2017  17:46:33.012803	-1.315871E-1	1.064948E-2	1.646291E-2	-1.014651E+1	2.222863E-2	1.183011E-2	7.205661E-2	1.892744E-2
10/19/2017  17:46:33.013803	9.719269E-2	1.828100E-2	2.409852E-2	-1.014396E+1	1.967868E-2	1.946206E-2	7.714242E-2	3.164702E-2
10/19/2017  17:46:33.014803	4.047744E-1	1.064948E-2	1.646291E-2	-1.014142E+1	2.222863E-2	1.946206E-2	7.459952E-2	3.927877E-2
10/19/2017  17:46:33.015803	6.615162E-1	1.828100E-2	1.137250E-2	-1.013378E+1	4.517816E-2	2.709402E-2	7.459952E-2	2.147136E-2
10/19/2017  17:46:33.016803	-2.891910E-1	1.064948E-2	2.155331E-2	-1.014651E+1	1.457878E-2	2.455003E-2	7.968532E-2	3.419094E-2
10/19/2017  17:46:33.017803	-5.357647E-1	5.561801E-3	1.900811E-2	-1.012869E+1	2.222863E-2	1.946206E-2	7.205661E-2	2.910311E-2
10/19/2017  17:46:33.018803	9.210870E-2	1.828100E-2	3.736893E-3	-1.014905E+1	2.732853E-2	2.455003E-2	7.714242E-2	2.655919E-2
10/19/2017  17:46:33.019803	1.226127E-1	1.828100E-2	2.918892E-2	-1.013632E+1	1.457878E-2	2.200605E-2	7.968532E-2	3.419094E-2
10/19/2017  17:46:33.020803	7.784481E-1	1.064948E-2	2.155331E-2	-1.013378E+1	1.967868E-2	1.946206E-2	7.968532E-2	3.419094E-2
10/19/2017  17:46:33.021803	5.598363E-1	2.082484E-2	1.391770E-2	-1.014651E+1	1.967868E-2	2.963800E-2	7.205661E-2	1.638352E-2
10/19/2017  17:46:33.022803	-2.561450E-1	1.828100E-2	2.664372E-2	-1.014905E+1	1.457878E-2	1.183011E-2	7.968532E-2	2.910311E-2
								
10/19/2017  17:46:33.023803	-5.993147E-1	2.082484E-2	1.900811E-2	-1.012869E+1	2.987847E-2	1.691808E-2	6.442791E-2	3.927877E-2
10/19/2017  17:46:33.024803	-2.561450E-1	1.573716E-2	1.137250E-2	-1.014396E+1	2.987847E-2	2.963800E-2	8.222822E-2	2.401527E-2
10/19/2017  17:46:33.025803	-3.244919E-2	1.319332E-2	2.664372E-2	-1.013632E+1	1.967868E-2	1.946206E-2	7.968532E-2	3.164702E-2
10/19/2017  17:46:33.026803	1.124447E-1	8.105642E-3	2.155331E-2	-1.013378E+1	1.967868E-2	2.200605E-2	7.205661E-2	3.164702E-2
10/19/2017  17:46:33.027803	2.014146E-1	1.064948E-2	6.282096E-3	-1.013378E+1	1.457878E-2	1.691808E-2	7.205661E-2	2.147136E-2
10/19/2017  17:46:33.028803	2.855876E-2	2.082484E-2	2.409852E-2	-1.013632E+1	1.712873E-2	2.200605E-2	8.222822E-2	3.164702E-2
10/19/2017  17:46:33.029803	6.335542E-1	8.105642E-3	8.827299E-3	-1.012869E+1	3.242842E-2	2.709402E-2	6.951371E-2	4.182269E-2
10/19/2017  17:46:33.030803	5.725463E-1	1.064948E-2	1.137250E-2	-1.014651E+1	2.222863E-2	2.455003E-2	6.951371E-2	2.147136E-2
10/19/2017  17:46:33.031803	1.073607E-1	1.319332E-2	2.664372E-2	-1.013632E+1	1.457878E-2	1.654165E-3	8.222822E-2	2.655919E-2
10/19/2017  17:46:33.032803	-1.671751E-1	3.017961E-3	2.155331E-2	-1.014651E+1	2.477858E-2	1.437409E-2	7.205661E-2	3.419094E-2
10/19/2017  17:46:33.033803	3.138778E-3	1.064948E-2	1.137250E-2	-1.013378E+1	2.732853E-2	2.200605E-2	6.951371E-2	3.164702E-2
10/19/2017  17:46:33.034803	2.115826E-1	1.319332E-2	1.900811E-2	-1.012105E+1	2.987847E-2	1.946206E-2	7.968532E-2	2.910311E-2
10/19/2017  17:46:33.035803	2.268346E-1	1.319332E-2	1.646291E-2	-1.012869E+1	2.222863E-2	1.437409E-2	6.951371E-2	3.419094E-2
10/19/2017  17:46:33.036803	-3.044429E-1	1.064948E-2	1.137250E-2	-1.013887E+1	2.222863E-2	2.200605E-2	6.188501E-2	2.147136E-2
10/19/2017  17:46:33.037803	-3.527409E-1	1.828100E-2	2.918892E-2	-1.015160E+1	1.457878E-2	2.455003E-2	8.222822E-2	3.164702E-2
10/19/2017  17:46:33.038803	-2.408930E-1	8.105642E-3	1.646291E-2	-1.012869E+1	2.477858E-2	1.691808E-2	7.459952E-2	2.655919E-2
10/19/2017  17:46:33.039803	-2.841070E-1	1.064948E-2	1.900811E-2	-1.012105E+1	2.222863E-2	2.455003E-2	6.697081E-2	2.910311E-2
10/19/2017  17:46:33.040803	-1.849691E-1	1.064948E-2	1.646291E-2	-1.013632E+1	1.967868E-2	2.200605E-2	7.205661E-2	2.147136E-2
10/19/2017  17:46:33.041803	-1.188771E-1	1.319332E-2	1.646291E-2	-1.014905E+1	2.222863E-2	6.742135E-3	6.697081E-2	3.927877E-2
10/19/2017  17:46:33.042803	8.702470E-2	4.741205E-4	8.827299E-3	-1.013378E+1	2.477858E-2	2.200605E-2	7.205661E-2	2.401527E-2
10/19/2017  17:46:33.043803	2.217506E-1	1.064948E-2	2.664372E-2	-1.013123E+1	1.202884E-2	1.946206E-2	8.985693E-2	3.927877E-2
10/19/2017  17:46:33.044803	1.149867E-1	1.064948E-2	3.173413E-2	-1.012614E+1	2.477858E-2	1.946206E-2	6.697081E-2	3.419094E-2
10/19/2017  17:46:33.045803	1.276967E-1	5.561801E-3	1.646291E-2	-1.013632E+1	1.967868E-2	1.946206E-2	6.951371E-2	2.910311E-2
10/19/2017  17:46:33.046803	-8.837314E-2	1.319332E-2	3.173413E-2	-1.013632E+1	1.202884E-2	2.455003E-2	7.968532E-2	2.910311E-2
10/19/2017  17:46:33.047803	-1.442971E-1	1.573716E-2	1.137250E-2	-1.013632E+1	2.477858E-2	1.691808E-2	7.459952E-2	3.673486E-2
10/19/2017  17:46:33.048803	-1.265031E-1	1.828100E-2	1.137250E-2	-1.014396E+1	2.987847E-2	3.726996E-2	7.714242E-2	2.910311E-2
10/19/2017  17:46:33.049803	-2.968170E-1	8.105642E-3	2.155331E-2	-1.012869E+1	9.478889E-3	2.200605E-2	8.222822E-2	4.182269E-2
10/19/2017  17:46:33.050803	1.836206E-1	1.064948E-2	1.137250E-2	-1.013123E+1	2.732853E-2	1.437409E-2	6.697081E-2	2.147136E-2
10/19/2017  17:46:33.051803	-1.211321E-2	1.064948E-2	1.646291E-2	-1.015160E+1	1.712873E-2	2.963800E-2	7.205661E-2	2.655919E-2
10/19/2017  17:46:33.052803	3.208885E-1	1.319332E-2	2.664372E-2	-1.013887E+1	1.457878E-2	2.200605E-2	7.968532E-2	2.910311E-2
10/19/2017  17:46:33.053803	7.326921E-1	8.105642E-3	1.137250E-2	-1.012359E+1	3.497837E-2	1.437409E-2	7.714242E-2	4.182269E-2
10/19/2017  17:46:33.054803	4.988283E-1	1.573716E-2	1.391770E-2	-1.014142E+1	2.987847E-2	1.946206E-2	6.951371E-2	3.164702E-2
10/19/2017  17:46:33.055803	1.861626E-1	1.828100E-2	1.900811E-2	-1.014396E+1	1.457878E-2	2.200605E-2	6.951371E-2	3.673486E-2
								
10/19/2017  17:46:33.056803	8.448270E-2	1.319332E-2	2.155331E-2	-1.012614E+1	2.222863E-2	1.946206E-2	8.222822E-2	3.164702E-2
10/19/2017  17:46:33.057803	8.956670E-2	1.319332E-2	1.900811E-2	-1.013887E+1	1.967868E-2	1.946206E-2	7.459952E-2	2.910311E-2
10/19/2017  17:46:33.058803	1.937886E-1	8.105642E-3	1.391770E-2	-1.012105E+1	2.987847E-2	2.709402E-2	6.697081E-2	2.910311E-2
10/19/2017  17:46:33.059803	2.497126E-1	1.828100E-2	1.391770E-2	-1.014905E+1	1.712873E-2	2.455003E-2	7.205661E-2	1.892744E-2
10/19/2017  17:46:33.060803	1.454906E-1	1.064948E-2	1.900811E-2	-1.015415E+1	1.712873E-2	9.286120E-3	6.951371E-2	3.164702E-2
10/19/2017  17:46:33.061803	-1.519231E-1	3.017961E-3	1.900811E-2	-1.013123E+1	2.222863E-2	1.691808E-2	7.205661E-2	3.673486E-2
10/19/2017  17:46:33.062803	-2.713970E-1	1.319332E-2	1.137250E-2	-1.013887E+1	2.222863E-2	2.963800E-2	7.968532E-2	1.892744E-2
10/19/2017  17:46:33.063803	-2.891910E-1	2.845637E-2	1.646291E-2	-1.014651E+1	1.457878E-2	2.455003E-2	8.222822E-2	2.655919E-2
10/19/2017  17:46:33.064803	1.454906E-1	8.105642E-3	2.664372E-2	-1.013887E+1	2.222863E-2	1.691808E-2	6.951371E-2	3.419094E-2
10/19/2017  17:46:33.065803	5.143673E-2	1.319332E-2	1.391770E-2	-1.013123E+1	1.967868E-2	2.709402E-2	6.951371E-2	2.910311E-2
10/19/2017  17:46:33.066803	-6.549516E-2	2.591253E-2	1.646291E-2	-1.014396E+1	2.477858E-2	2.963800E-2	7.459952E-2	2.910311E-2
10/19/2017  17:46:33.067803	-1.465521E-2	1.064948E-2	2.664372E-2	-1.013632E+1	1.712873E-2	9.286120E-3	7.968532E-2	3.927877E-2
10/19/2017  17:46:33.068803	-4.007518E-2	2.082484E-2	1.137250E-2	-1.011596E+1	2.477858E-2	1.437409E-2	7.459952E-2	2.910311E-2
10/19/2017  17:46:33.069803	2.093276E-2	1.064948E-2	1.900811E-2	-1.013378E+1	2.222863E-2	1.691808E-2	7.205661E-2	2.147136E-2
10/19/2017  17:46:33.070803	1.226127E-1	1.828100E-2	2.155331E-2	-1.014651E+1	2.222863E-2	1.691808E-2	7.968532E-2	3.673486E-2
10/19/2017  17:46:33.071803	2.347476E-2	8.105642E-3	2.155331E-2	-1.012869E+1	2.222863E-2	1.691808E-2	7.205661E-2	3.927877E-2
10/19/2017  17:46:33.072803	-2.307250E-1	5.561801E-3	1.137250E-2	-1.013887E+1	4.007827E-2	2.963800E-2	7.205661E-2	2.401527E-2
10/19/2017  17:46:33.073803	-4.493368E-1	1.064948E-2	2.155331E-2	-1.014142E+1	1.712873E-2	2.200605E-2	7.968532E-2	2.655919E-2
10/19/2017  17:46:33.074803	2.166666E-1	5.561801E-3	1.391770E-2	-1.012614E+1	1.202884E-2	1.691808E-2	6.697081E-2	2.910311E-2
10/19/2017  17:46:33.075803	1.131786E+0	2.082484E-2	3.736893E-3	-1.013378E+1	2.477858E-2	2.963800E-2	6.697081E-2	2.655919E-2
10/19/2017  17:46:33.076803	5.967806E-4	1.319332E-2	2.918892E-2	-1.013887E+1	1.712873E-2	1.946206E-2	7.968532E-2	4.436661E-2
10/19/2017  17:46:33.077803	-2.739390E-1	1.064948E-2	1.900811E-2	-1.011596E+1	2.222863E-2	1.946206E-2	7.968532E-2	3.164702E-2
10/19/2017  17:46:33.078803	2.802165E-1	1.319332E-2	6.282096E-3	-1.013887E+1	1.967868E-2	1.946206E-2	7.205661E-2	3.164702E-2
10/19/2017  17:46:33.079803	3.081785E-1	1.828100E-2	2.409852E-2	-1.015160E+1	1.712873E-2	1.691808E-2	8.731403E-2	3.164702E-2
10/19/2017  17:46:33.080803	1.556586E-1	5.561801E-3	2.155331E-2	-1.013123E+1	2.222863E-2	1.691808E-2	7.459952E-2	3.164702E-2
10/19/2017  17:46:33.081803	5.089963E-1	1.064948E-2	1.646291E-2	-1.013887E+1	1.712873E-2	1.946206E-2	6.442791E-2	2.655919E-2
10/19/2017  17:46:33.082803	1.058068E+0	1.064948E-2	6.282096E-3	-1.013632E+1	1.457878E-2	1.183011E-2	7.968532E-2	3.164702E-2
10/19/2017  17:46:33.083803	1.035190E+0	1.319332E-2	1.646291E-2	-1.014396E+1	1.967868E-2	1.946206E-2	7.205661E-2	3.164702E-2
10/19/2017  17:46:33.084803	-4.722148E-1	2.082484E-2	1.646291E-2	-1.014142E+1	1.967868E-2	2.963800E-2	7.205661E-2	2.655919E-2
10/19/2017  17:46:33.085803	-7.162466E-1	1.319332E-2	1.646291E-2	-1.013632E+1	1.967868E-2	2.200605E-2	7.714242E-2	3.164702E-2
10/19/2017  17:46:33.086803	-3.298629E-1	1.319332E-2	8.827299E-3	-1.013378E+1	2.987847E-2	2.200605E-2	6.697081E-2	3.419094E-2
10/19/2017  17:46:33.087803	-1.468391E-1	1.573716E-2	2.155331E-2	-1.013378E+1	1.457878E-2	2.963800E-2	7.968532E-2	2.655919E-2
10/19/2017  17:46:33.088803	-1.519231E-1	5.561801E-3	1.646291E-2	-1.012614E+1	2.222863E-2	1.946206E-2	7.714242E-2	3.419094E-2
								
10/19/2017  17:46:33.089803	-1.824271E-1	2.336868E-2	1.391770E-2	-1.015160E+1	3.497837E-2	2.200605E-2	6.697081E-2	3.673486E-2
10/19/2017  17:46:33.090803	-7.566315E-2	1.828100E-2	1.900811E-2	-1.014142E+1	2.477858E-2	2.200605E-2	7.459952E-2	3.927877E-2
10/19/2017  17:46:33.091803	1.175287E-1	8.105642E-3	1.646291E-2	-1.011850E+1	1.712873E-2	1.437409E-2	7.968532E-2	3.164702E-2
10/19/2017  17:46:33.092803	5.572943E-1	1.319332E-2	8.827299E-3	-1.014142E+1	2.732853E-2	1.946206E-2	6.697081E-2	2.401527E-2
10/19/2017  17:46:33.093803	-5.128868E-1	1.573716E-2	2.409852E-2	-1.013887E+1	9.478889E-3	2.963800E-2	7.714242E-2	2.910311E-2
10/19/2017  17:46:33.094803	-1.183974E+0	5.561801E-3	1.900811E-2	-1.012614E+1	2.222863E-2	1.691808E-2	7.968532E-2	3.673486E-2
10/19/2017  17:46:33.095803	-6.247347E-1	1.064948E-2	1.137250E-2	-1.014142E+1	2.987847E-2	2.455003E-2	7.205661E-2	1.892744E-2
10/19/2017  17:46:33.096803	3.364275E-2	1.573716E-2	1.391770E-2	-1.014905E+1	1.712873E-2	3.218199E-2	7.968532E-2	2.401527E-2
10/19/2017  17:46:33.097803	6.945622E-1	3.017961E-3	2.155331E-2	-1.013378E+1	1.712873E-2	1.691808E-2	7.459952E-2	2.910311E-2
10/19/2017  17:46:33.098803	1.017396E+0	1.319332E-2	1.137250E-2	-1.015415E+1	1.967868E-2	1.183011E-2	7.968532E-2	2.401527E-2
10/19/2017  17:46:33.099803	1.839076E-2	1.828100E-2	3.173413E-2	-1.012359E+1	1.967868E-2	2.455003E-2	7.968532E-2	3.164702E-2
10/19/2017  17:46:33.100803	5.877982E-1	5.561801E-3	1.900811E-2	-1.013378E+1	2.222863E-2	1.691808E-2	8.731403E-2	3.673486E-2
10/19/2017  17:46:33.101803	2.334151E+0	1.064948E-2	2.155331E-2	-1.013887E+1	3.497837E-2	2.200605E-2	6.951371E-2	2.655919E-2
10/19/2017  17:46:33.102803	1.820667E+0	5.561801E-3	2.155331E-2	-1.013887E+1	1.457878E-2	1.946206E-2	7.459952E-2	3.164702E-2
10/19/2017  17:46:33.103803	1.429487E-1	1.064948E-2	8.827299E-3	-1.013123E+1	9.478889E-3	2.455003E-2	7.459952E-2	3.673486E-2
10/19/2017  17:46:33.104803	-1.305990E+0	2.336868E-2	1.646291E-2	-1.014142E+1	1.712873E-2	2.200605E-2	7.714242E-2	2.401527E-2
10/19/2017  17:46:33.105803	-9.679043E-1	1.064948E-2	1.900811E-2	-1.014142E+1	1.712873E-2	1.437409E-2	7.968532E-2	3.673486E-2
10/19/2017  17:46:33.106803	-5.205127E-1	-2.069720E-3	1.900811E-2	-1.013378E+1	1.457878E-2	1.691808E-2	6.951371E-2	3.927877E-2
10/19/2017  17:46:33.107803	4.556144E-1	1.573716E-2	8.827299E-3	-1.013123E+1	2.732853E-2	6.742135E-3	6.951371E-2	2.401527E-2
10/19/2017  17:46:33.108803	1.937886E-1	1.319332E-2	2.409852E-2	-1.015160E+1	2.477858E-2	2.709402E-2	8.477112E-2	3.164702E-2
10/19/2017  17:46:33.109803	3.110075E-2	1.064948E-2	1.900811E-2	-1.013123E+1	1.967868E-2	1.691808E-2	7.459952E-2	3.927877E-2
10/19/2017  17:46:33.110803	-9.345713E-2	1.064948E-2	8.827299E-3	-1.015669E+1	3.497837E-2	2.200605E-2	6.697081E-2	2.147136E-2
10/19/2017  17:46:33.111803	-3.095269E-1	1.828100E-2	1.900811E-2	-1.014396E+1	1.457878E-2	2.963800E-2	8.222822E-2	2.655919E-2
10/19/2017  17:46:33.112803	-3.984969E-1	8.105642E-3	2.664372E-2	-1.013123E+1	4.378993E-3	1.691808E-2	7.459952E-2	3.927877E-2
10/19/2017  17:46:33.113803	-2.586870E-1	8.105642E-3	1.646291E-2	-1.013632E+1	2.732853E-2	2.200605E-2	6.697081E-2	3.419094E-2
10/19/2017  17:46:33.114803	-2.129310E-1	1.828100E-2	1.137250E-2	-1.014651E+1	1.967868E-2	2.709402E-2	7.968532E-2	2.147136E-2
10/19/2017  17:46:33.115803	-1.137931E-1	8.105642E-3	2.664372E-2	-1.014142E+1	1.457878E-2	2.455003E-2	7.968532E-2	3.927877E-2
10/19/2017  17:46:33.116803	1.734526E-1	4.741205E-4	1.391770E-2	-1.013632E+1	2.477858E-2	1.437409E-2	6.697081E-2	2.401527E-2
10/19/2017  17:46:33.117803	8.979220E-1	1.828100E-2	8.827299E-3	-1.013378E+1	2.477858E-2	3.218199E-2	6.697081E-2	2.401527E-2
10/19/2017  17:46:33.118803	1.581719E+0	1.319332E-2	2.664372E-2	-1.014396E+1	1.712873E-2	2.455003E-2	8.222822E-2	3.419094E-2
10/19/2017  17:46:33.119803	8.140360E-1	8.105642E-3	1.900811E-2	-1.012869E+1	1.967868E-2	2.200605E-2	8.477112E-2	3.927877E-2
10/19/2017  17:46:33.120803	-3.629089E-1	1.828100E-2	1.391770E-2	-1.013887E+1	2.732853E-2	1.691808E-2	7.205661E-2	2.910311E-2
10/19/2017  17:46:33.121803	-9.068964E-1	1.573716E-2	1.900811E-2	-1.013887E+1	2.222863E-2	2.455003E-2	7.205661E-2	3.164702E-2
								
10/19/2017  17:46:33.122803	-6.959106E-1	1.573716E-2	2.918892E-2	-1.012869E+1	2.222863E-2	1.946206E-2	7.459952E-2	3.927877E-2
10/19/2017  17:46:33.123803	-3.349469E-1	1.573716E-2	8.827299E-3	-1.013378E+1	2.732853E-2	2.200605E-2	7.205661E-2	2.910311E-2
10/19/2017  17:46:33.124803	3.138778E-3	1.828100E-2	1.900811E-2	-1.014651E+1	1.712873E-2	3.726996E-2	7.968532E-2	2.910311E-2
10/19/2017  17:46:33.125803	1.584877E-2	-2.069720E-3	1.391770E-2	-1.013378E+1	1.457878E-2	1.691808E-2	7.205661E-2	3.927877E-2
10/19/2017  17:46:33.126803	1.429487E-1	1.573716E-2	1.900811E-2	-1.013632E+1	2.477858E-2	9.286120E-3	6.951371E-2	2.910311E-2
10/19/2017  17:46:33.127803	8.702470E-2	5.561801E-3	1.900811E-2	-1.015669E+1	2.222863E-2	2.963800E-2	8.222822E-2	3.673486E-2
10/19/2017  17:46:33.128803	-1.214191E-1	8.105642E-3	1.900811E-2	-1.013632E+1	2.222863E-2	1.437409E-2	7.205661E-2	4.182269E-2
10/19/2017  17:46:33.129803	-4.849248E-1	1.319332E-2	1.391770E-2	-1.015924E+1	1.967868E-2	2.709402E-2	6.951371E-2	2.401527E-2
10/19/2017  17:46:33.130803	-4.925508E-1	1.828100E-2	2.409852E-2	-1.014905E+1	2.222863E-2	1.946206E-2	6.951371E-2	3.164702E-2
10/19/2017  17:46:33.131803	-2.482320E-2	1.064948E-2	1.646291E-2	-1.012869E+1	2.987847E-2	1.183011E-2	7.205661E-2	4.691052E-2
10/19/2017  17:46:33.132803	2.064986E-1	1.319332E-2	1.391770E-2	-1.012614E+1	2.477858E-2	2.709402E-2	6.951371E-2	3.164702E-2
10/19/2017  17:46:33.133803	1.454906E-1	2.082484E-2	2.155331E-2	-1.014142E+1	2.222863E-2	2.455003E-2	7.459952E-2	3.673486E-2
10/19/2017  17:46:33.134803	4.606984E-1	1.064948E-2	2.664372E-2	-1.012105E+1	2.222863E-2	2.709402E-2	6.951371E-2	3.673486E-2
10/19/2017  17:46:33.135803	9.919759E-1	8.105642E-3	1.137250E-2	-1.013632E+1	2.477858E-2	2.200605E-2	7.459952E-2	1.892744E-2
10/19/2017  17:46:33.136803	5.547523E-1	1.064948E-2	1.900811E-2	-1.015160E+1	2.222863E-2	1.946206E-2	6.697081E-2	2.655919E-2
10/19/2017  17:46:33.137803	-3.578249E-1	1.064948E-2	1.391770E-2	-1.013632E+1	2.477858E-2	2.709402E-2	7.459952E-2	3.673486E-2
10/19/2017  17:46:33.138803	-3.781609E-1	1.064948E-2	1.137250E-2	-1.013887E+1	2.477858E-2	2.455003E-2	5.934210E-2	3.673486E-2
10/19/2017  17:46:33.139803	-2.027630E-1	1.828100E-2	6.282096E-3	-1.014142E+1	1.967868E-2	1.946206E-2	7.205661E-2	2.655919E-2
10/19/2017  17:46:33.140803	-1.315871E-1	1.319332E-2	2.409852E-2	-1.013887E+1	2.222863E-2	1.946206E-2	8.222822E-2	3.164702E-2
10/19/2017  17:46:33.141803	-9.571210E-3	1.064948E-2	1.391770E-2	-1.013887E+1	1.457878E-2	2.709402E-2	7.459952E-2	3.164702E-2
10/19/2017  17:46:33.142803	8.956670E-2	1.828100E-2	1.646291E-2	-1.013887E+1	1.967868E-2	2.455003E-2	7.205661E-2	2.401527E-2
10/19/2017  17:46:33.143803	2.446286E-1	1.573716E-2	2.155331E-2	-1.013123E+1	2.222863E-2	2.455003E-2	7.968532E-2	3.164702E-2
10/19/2017  17:46:33.144803	2.344606E-1	4.741205E-4	1.137250E-2	-1.013123E+1	2.222863E-2	1.437409E-2	6.697081E-2	3.419094E-2
10/19/2017  17:46:33.145803	5.293323E-1	1.828100E-2	8.827299E-3	-1.013378E+1	2.987847E-2	2.963800E-2	7.205661E-2	2.655919E-2
10/19/2017  17:46:33.146803	9.055480E-1	2.845637E-2	2.155331E-2	-1.013887E+1	1.712873E-2	1.946206E-2	7.205661E-2	3.164702E-2
10/19/2017  17:46:33.147803	3.590185E-1	5.561801E-3	6.282096E-3	-1.012614E+1	2.477858E-2	1.691808E-2	6.697081E-2	3.673486E-2
10/19/2017  17:46:33.148803	-3.908709E-1	8.105642E-3	1.646291E-2	-1.014142E+1	4.378993E-3	2.709402E-2	6.951371E-2	1.892744E-2
10/19/2017  17:46:33.149803	-5.281387E-1	1.573716E-2	1.646291E-2	-1.014142E+1	1.712873E-2	1.691808E-2	7.714242E-2	2.910311E-2
10/19/2017  17:46:33.150803	-3.247789E-1	1.573716E-2	2.155331E-2	-1.013123E+1	1.202884E-2	1.946206E-2	6.697081E-2	3.927877E-2
10/19/2017  17:46:33.151803	-4.722148E-1	1.319332E-2	2.155331E-2	-1.013378E+1	1.967868E-2	1.946206E-2	7.459952E-2	2.147136E-2
10/19/2017  17:46:33.152803	-3.984969E-1	2.082484E-2	2.155331E-2	-1.014142E+1	1.202884E-2	2.709402E-2	7.968532E-2	3.164702E-2
10/19/2017  17:46:33.153803	-4.340848E-1	8.105642E-3	3.173413E-2	-1.014142E+1	1.457878E-2	1.183011E-2	7.968532E-2	3.673486E-2
10/19/2017  17:46:33.154803	-4.770118E-2	3.017961E-3	1.646291E-2	-1.013887E+1	2.477858E-2	2.200605E-2	6.951371E-2	3.673486E-2
								
10/19/2017  17:46:33.155803	4.734084E-1	1.828100E-2	1.646291E-2	-1.012869E+1	2.222863E-2	2.455003E-2	7.714242E-2	3.164702E-2
10/19/2017  17:46:33.156803	4.378204E-1	1.319332E-2	1.137250E-2	-1.013632E+1	2.477858E-2	2.455003E-2	7.205661E-2	3.164702E-2
10/19/2017  17:46:33.157803	1.632846E-1	1.064948E-2	1.137250E-2	-1.016433E+1	2.732853E-2	1.437409E-2	6.188501E-2	2.401527E-2
10/19/2017  17:46:33.158803	1.836206E-1	1.828100E-2	2.918892E-2	-1.013887E+1	9.478889E-3	1.946206E-2	7.968532E-2	2.147136E-2
10/19/2017  17:46:33.159803	-2.891910E-1	8.105642E-3	2.155331E-2	-1.012869E+1	1.457878E-2	1.691808E-2	7.205661E-2	3.673486E-2
10/19/2017  17:46:33.160803	-5.078028E-1	1.319332E-2	2.409852E-2	-1.013887E+1	3.497837E-2	2.963800E-2	6.951371E-2	2.910311E-2
10/19/2017  17:46:33.161803	-2.764810E-1	2.591253E-2	1.137250E-2	-1.014142E+1	2.477858E-2	2.709402E-2	7.459952E-2	2.655919E-2
10/19/2017  17:46:33.162803	7.177272E-2	1.319332E-2	2.155331E-2	-1.012869E+1	1.967868E-2	9.286120E-3	7.459952E-2	3.419094E-2
10/19/2017  17:46:33.163803	3.971484E-1	-2.069720E-3	8.827299E-3	-1.012614E+1	2.987847E-2	1.437409E-2	6.951371E-2	3.419094E-2
10/19/2017  17:46:33.164803	5.903402E-1	1.828100E-2	1.137250E-2	-1.014142E+1	3.242842E-2	4.490191E-2	6.951371E-2	2.401527E-2
10/19/2017  17:46:33.165803	1.251260E+0	2.591253E-2	2.409852E-2	-1.013123E+1	1.712873E-2	1.946206E-2	7.968532E-2	2.910311E-2
10/19/2017  17:46:33.166803	6.920202E-1	5.561801E-3	1.646291E-2	-1.013378E+1	1.967868E-2	1.946206E-2	7.714242E-2	2.147136E-2
10/19/2017  17:46:33.167803	-5.278517E-2	1.064948E-2	1.137250E-2	-1.012614E+1	1.202884E-2	1.946206E-2	6.697081E-2	2.655919E-2
10/19/2017  17:46:33.168803	-2.815650E-1	1.319332E-2	2.155331E-2	-1.014142E+1	1.457878E-2	1.946206E-2	8.222822E-2	3.419094E-2
10/19/2017  17:46:33.169803	-1.976790E-1	1.064948E-2	2.155331E-2	-1.013378E+1	4.007827E-2	1.437409E-2	7.205661E-2	3.927877E-2
10/19/2017  17:46:33.170803	-4.722148E-1	2.082484E-2	1.646291E-2	-1.013632E+1	2.732853E-2	2.709402E-2	6.951371E-2	2.147136E-2
10/19/2017  17:46:33.171803	2.446286E-1	1.319332E-2	1.646291E-2	-1.013887E+1	1.457878E-2	1.946206E-2	8.222822E-2	2.147136E-2
10/19/2017  17:46:33.172803	4.886603E-1	1.319332E-2	2.155331E-2	-1.014651E+1	1.967868E-2	1.946206E-2	6.951371E-2	2.910311E-2
10/19/2017  17:46:33.173803	2.929265E-1	1.573716E-2	2.409852E-2	-1.013887E+1	2.477858E-2	2.963800E-2	7.205661E-2	2.401527E-2
10/19/2017  17:46:33.174803	2.420866E-1	3.017961E-3	2.409852E-2	-1.010577E+1	1.712873E-2	2.200605E-2	8.985693E-2	3.927877E-2
10/19/2017  17:46:33.175803	6.538902E-1	1.064948E-2	8.827299E-3	-1.012869E+1	2.477858E-2	1.437409E-2	6.951371E-2	3.164702E-2
10/19/2017  17:46:33.176803	6.055922E-1	1.828100E-2	1.900811E-2	-1.014142E+1	1.967868E-2	2.455003E-2	6.951371E-2	2.910311E-2
10/19/2017  17:46:33.177803	3.615605E-1	3.017961E-3	1.137250E-2	-1.013123E+1	9.478889E-3	1.437409E-2	7.714242E-2	3.673486E-2
10/19/2017  17:46:33.178803	-3.244919E-2	4.741205E-4	1.900811E-2	-1.013378E+1	2.732853E-2	1.946206E-2	7.205661E-2	2.910311E-2
10/19/2017  17:46:33.179803	6.414672E-2	2.082484E-2	2.409852E-2	-1.014651E+1	2.732853E-2	2.963800E-2	7.205661E-2	2.910311E-2
10/19/2017  17:46:33.180803	-2.027630E-1	1.064948E-2	2.409852E-2	-1.013632E+1	2.222863E-2	2.200605E-2	6.188501E-2	2.910311E-2
10/19/2017  17:46:33.181803	-3.146109E-1	1.064948E-2	1.391770E-2	-1.013632E+1	2.987847E-2	1.691808E-2	7.205661E-2	2.655919E-2
10/19/2017  17:46:33.182803	-9.145224E-1	1.828100E-2	1.646291E-2	-1.014651E+1	2.477858E-2	2.963800E-2	7.205661E-2	2.401527E-2
10/19/2017  17:46:33.183803	-1.283112E+0	1.064948E-2	2.409852E-2	-1.013378E+1	1.457878E-2	2.709402E-2	7.968532E-2	4.182269E-2
10/19/2017  17:46:33.184803	-9.348584E-1	1.828100E-2	1.391770E-2	-1.012869E+1	2.477858E-2	1.437409E-2	6.697081E-2	3.164702E-2
10/19/2017  17:46:33.185803	2.141246E-1	1.828100E-2	1.646291E-2	-1.014142E+1	2.222863E-2	2.709402E-2	7.205661E-2	2.401527E-2
10/19/2017  17:46:33.186803	6.818522E-1	1.319332E-2	2.409852E-2	-1.013887E+1	6.928941E-3	1.946206E-2	7.459952E-2	2.655919E-2
10/19/2017  17:46:33.187803	2.980105E-1	5.561801E-3	1.391770E-2	-1.012869E+1	2.222863E-2	2.200605E-2	7.205661E-2	3.419094E-2
								
10/19/2017  17:46:33.188803	1.353227E-1	1.064948E-2	1.646291E-2	-1.013887E+1	3.242842E-2	2.963800E-2	7.714242E-2	2.910311E-2
10/19/2017  17:46:33.189803	2.217506E-1	8.105642E-3	1.646291E-2	-1.013632E+1	1.967868E-2	2.709402E-2	7.205661E-2	3.164702E-2
10/19/2017  17:46:33.190803	3.335985E-1	8.105642E-3	1.900811E-2	-1.013378E+1	1.967868E-2	1.946206E-2	8.222822E-2	2.401527E-2
10/19/2017  17:46:33.191803	5.598363E-1	1.319332E-2	1.137250E-2	-1.014396E+1	2.222863E-2	1.946206E-2	7.714242E-2	2.401527E-2
10/19/2017  17:46:33.192803	6.488062E-1	1.319332E-2	2.664372E-2	-1.013632E+1	1.712873E-2	1.691808E-2	7.968532E-2	4.945444E-2
10/19/2017  17:46:33.193803	3.996904E-1	1.064948E-2	1.137250E-2	-1.012869E+1	2.222863E-2	2.455003E-2	8.222822E-2	2.910311E-2
10/19/2017  17:46:33.194803	4.657824E-1	1.828100E-2	1.137250E-2	-1.013632E+1	1.967868E-2	2.709402E-2	7.714242E-2	2.655919E-2
10/19/2017  17:46:33.195803	1.251547E-1	1.573716E-2	2.155331E-2	-1.014142E+1	1.457878E-2	2.200605E-2	7.205661E-2	3.673486E-2
10/19/2017  17:46:33.196803	1.251547E-1	4.741205E-4	1.900811E-2	-1.013123E+1	2.987847E-2	1.691808E-2	6.951371E-2	2.910311E-2
10/19/2017  17:46:33.197803	2.954685E-1	2.082484E-2	1.391770E-2	-1.014142E+1	1.967868E-2	2.709402E-2	8.731403E-2	2.910311E-2
10/19/2017  17:46:33.198803	5.115383E-1	1.573716E-2	4.191494E-2	-1.013887E+1	1.967868E-2	2.709402E-2	7.459952E-2	3.164702E-2
10/19/2017  17:46:33.199803	1.937886E-1	8.105642E-3	1.646291E-2	-1.013632E+1	1.967868E-2	2.200605E-2	6.697081E-2	2.910311E-2
10/19/2017  17:46:33.200803	-4.925508E-1	2.082484E-2	6.282096E-3	-1.014142E+1	1.457878E-2	1.691808E-2	7.205661E-2	2.147136E-2
10/19/2017  17:46:33.201803	-6.041116E-2	1.064948E-2	2.155331E-2	-1.014651E+1	1.457878E-2	2.200605E-2	7.968532E-2	3.927877E-2
10/19/2017  17:46:33.202803	-1.417551E-1	8.105642E-3	1.391770E-2	-1.013378E+1	2.987847E-2	9.286120E-3	6.951371E-2	3.673486E-2
10/19/2017  17:46:33.203803	-6.295316E-2	2.336868E-2	1.900811E-2	-1.013887E+1	2.222863E-2	2.709402E-2	7.205661E-2	2.401527E-2
10/19/2017  17:46:33.204803	4.126874E-2	1.319332E-2	1.900811E-2	-1.014396E+1	1.457878E-2	6.742135E-3	8.222822E-2	3.164702E-2
10/19/2017  17:46:33.205803	5.397873E-2	3.017961E-3	1.646291E-2	-1.013632E+1	3.497837E-2	1.691808E-2	7.205661E-2	3.927877E-2
10/19/2017  17:46:33.206803	-5.024317E-2	1.064948E-2	1.646291E-2	-1.013887E+1	2.732853E-2	2.455003E-2	7.459952E-2	3.419094E-2
10/19/2017  17:46:33.207803	-3.400309E-1	1.319332E-2	1.900811E-2	-1.012869E+1	3.752832E-2	1.946206E-2	7.714242E-2	2.655919E-2
10/19/2017  17:46:33.208803	-1.798851E-1	1.064948E-2	1.137250E-2	-1.013378E+1	1.712873E-2	2.455003E-2	7.459952E-2	3.927877E-2
10/19/2017  17:46:33.209803	-9.599913E-2	1.064948E-2	1.646291E-2	-1.013632E+1	1.712873E-2	1.946206E-2	7.459952E-2	2.401527E-2
10/19/2017  17:46:33.210803	3.335985E-1	1.064948E-2	1.391770E-2	-1.014651E+1	2.222863E-2	2.963800E-2	7.459952E-2	2.401527E-2
10/19/2017  17:46:33.211803	2.344606E-1	1.573716E-2	2.664372E-2	-1.013887E+1	1.457878E-2	1.946206E-2	8.222822E-2	3.927877E-2
10/19/2017  17:46:33.212803	9.210870E-2	3.017961E-3	2.664372E-2	-1.013123E+1	1.967868E-2	1.946206E-2	6.951371E-2	3.927877E-2
10/19/2017  17:46:33.213803	7.177272E-2	8.105642E-3	8.827299E-3	-1.014142E+1	2.477858E-2	1.946206E-2	7.205661E-2	2.147136E-2
10/19/2017  17:46:33.214803	-1.973920E-2	1.064948E-2	1.900811E-2	-1.011850E+1	1.967868E-2	1.946206E-2	6.697081E-2	3.419094E-2
10/19/2017  17:46:33.215803	1.327807E-1	4.741205E-4	2.664372E-2	-1.013632E+1	2.477858E-2	1.691808E-2	7.205661E-2	3.927877E-2
10/19/2017  17:46:33.216803	3.259725E-1	1.319332E-2	1.137250E-2	-1.013378E+1	2.477858E-2	2.200605E-2	7.968532E-2	3.164702E-2
10/19/2017  17:46:33.217803	-8.074715E-2	2.845637E-2	1.391770E-2	-1.014142E+1	1.202884E-2	2.963800E-2	8.222822E-2	2.401527E-2
10/19/2017  17:46:33.218803	-1.875110E-1	3.017961E-3	2.664372E-2	-1.013632E+1	1.202884E-2	1.437409E-2	7.714242E-2	3.927877E-2
10/19/2017  17:46:33.219803	1.810786E-1	5.561801E-3	1.191689E-3	-1.013632E+1	2.222863E-2	1.946206E-2	6.697081E-2	3.164702E-2
10/19/2017  17:46:33.220803	1.091114E+0	2.591253E-2	1.646291E-2	-1.013632E+1	2.222863E-2	2.963800E-2	7.714242E-2	2.910311E-2
								
10/19/2017  17:46:33.221803	1.086030E+0	1.064948E-2	2.918892E-2	-1.013378E+1	1.712873E-2	2.963800E-2	7.968532E-2	3.164702E-2
10/19/2017  17:46:33.222803	3.844384E-1	8.105642E-3	1.900811E-2	-1.013887E+1	1.712873E-2	1.946206E-2	7.459952E-2	2.910311E-2
10/19/2017  17:46:33.223803	-6.069407E-1	1.828100E-2	1.900811E-2	-1.014142E+1	2.222863E-2	1.183011E-2	7.459952E-2	1.638352E-2
10/19/2017  17:46:33.224803	-6.247347E-1	1.064948E-2	2.409852E-2	-1.015415E+1	1.712873E-2	1.946206E-2	7.968532E-2	3.164702E-2
10/19/2017  17:46:33.225803	-7.772545E-1	5.561801E-3	1.137250E-2	-1.013123E+1	2.732853E-2	1.946206E-2	6.697081E-2	3.673486E-2
10/19/2017  17:46:33.226803	-2.841070E-1	1.828100E-2	1.137250E-2	-1.012869E+1	4.262821E-2	2.963800E-2	7.459952E-2	2.147136E-2
10/19/2017  17:46:33.227803	-1.315871E-1	1.064948E-2	1.900811E-2	-1.014651E+1	1.202884E-2	1.946206E-2	7.459952E-2	3.164702E-2
10/19/2017  17:46:33.228803	-4.544208E-1	3.017961E-3	1.646291E-2	-1.013378E+1	9.478889E-3	1.691808E-2	6.697081E-2	2.910311E-2
10/19/2017  17:46:33.229803	-3.629089E-1	1.573716E-2	6.282096E-3	-1.013632E+1	2.987847E-2	2.963800E-2	6.951371E-2	2.401527E-2
10/19/2017  17:46:33.230803	9.719269E-2	2.336868E-2	2.155331E-2	-1.013887E+1	1.967868E-2	2.200605E-2	8.731403E-2	2.655919E-2
10/19/2017  17:46:33.231803	3.158045E-1	5.561801E-3	1.900811E-2	-1.014651E+1	1.967868E-2	1.691808E-2	7.205661E-2	3.673486E-2
10/19/2017  17:46:33.232803	3.056365E-1	8.105642E-3	8.827299E-3	-1.013123E+1	2.477858E-2	1.946206E-2	7.714242E-2	1.638352E-2
10/19/2017  17:46:33.233803	5.039123E-1	1.064948E-2	2.155331E-2	-1.012614E+1	2.222863E-2	1.946206E-2	6.951371E-2	2.910311E-2
10/19/2017  17:46:33.234803	2.878425E-1	1.064948E-2	2.664372E-2	-1.013378E+1	1.967868E-2	1.691808E-2	7.714242E-2	3.927877E-2
10/19/2017  17:46:33.235803	6.160473E-2	1.319332E-2	1.137250E-2	-1.013632E+1	2.732853E-2	2.455003E-2	7.968532E-2	2.401527E-2
10/19/2017  17:46:33.236803	-1.646331E-1	2.336868E-2	1.900811E-2	-1.014396E+1	1.202884E-2	3.218199E-2	7.968532E-2	2.655919E-2
10/19/2017  17:46:33.237803	-1.137931E-1	8.105642E-3	1.900811E-2	-1.013378E+1	2.222863E-2	1.946206E-2	6.951371E-2	3.673486E-2
10/19/2017  17:46:33.238803	-9.571210E-3	1.319332E-2	2.155331E-2	-1.013632E+1	2.987847E-2	2.963800E-2	7.205661E-2	2.910311E-2
10/19/2017  17:46:33.239803	-1.290451E-1	2.591253E-2	2.409852E-2	-1.014142E+1	1.457878E-2	2.709402E-2	8.222822E-2	2.655919E-2
10/19/2017  17:46:33.240803	-1.341291E-1	5.561801E-3	2.664372E-2	-1.013378E+1	1.712873E-2	1.654165E-3	7.968532E-2	3.927877E-2
10/19/2017  17:46:33.241803	-5.024317E-2	3.017961E-3	1.137250E-2	-1.014142E+1	2.477858E-2	2.200605E-2	6.697081E-2	2.910311E-2
10/19/2017  17:46:33.242803	2.776745E-1	1.828100E-2	1.900811E-2	-1.013887E+1	1.967868E-2	1.183011E-2	7.205661E-2	3.164702E-2
10/19/2017  17:46:33.243803	-5.128868E-1	-2.069720E-3	1.900811E-2	-1.015415E+1	2.987847E-2	2.200605E-2	7.714242E-2	3.927877E-2
10/19/2017  17:46:33.244803	-4.798408E-1	1.319332E-2	1.137250E-2	-1.013632E+1	2.987847E-2	2.200605E-2	6.697081E-2	1.638352E-2
10/19/2017  17:46:33.245803	1.263970E+0	1.573716E-2	1.646291E-2	-1.013887E+1	1.967868E-2	2.709402E-2	7.459952E-2	2.147136E-2
10/19/2017  17:46:33.246803	1.757117E+0	5.561801E-3	1.900811E-2	-1.012869E+1	1.202884E-2	1.691808E-2	7.968532E-2	3.927877E-2
10/19/2017  17:46:33.247803	-4.261718E-2	8.105642E-3	1.137250E-2	-1.012614E+1	4.007827E-2	1.437409E-2	6.951371E-2	3.927877E-2
10/19/2017  17:46:33.248803	-5.408487E-1	2.082484E-2	1.391770E-2	-1.013632E+1	2.732853E-2	2.963800E-2	7.205661E-2	2.147136E-2
10/19/2017  17:46:33.249803	-6.603226E-1	2.336868E-2	2.155331E-2	-1.014396E+1	1.457878E-2	2.709402E-2	8.477112E-2	2.910311E-2
10/19/2017  17:46:33.250803	-1.951370E-1	8.105642E-3	2.918892E-2	-1.014651E+1	1.202884E-2	1.183011E-2	6.697081E-2	3.927877E-2
10/19/2017  17:46:33.251803	-2.332670E-1	1.064948E-2	1.137250E-2	-1.013632E+1	2.732853E-2	2.455003E-2	6.697081E-2	2.147136E-2
10/19/2017  17:46:33.252803	1.505746E-1	2.336868E-2	2.155331E-2	-1.014905E+1	2.222863E-2	2.709402E-2	7.714242E-2	2.655919E-2
10/19/2017  17:46:33.253803	2.344606E-1	2.082484E-2	3.173413E-2	-1.013632E+1	1.457878E-2	1.437409E-2	7.968532E-2	3.419094E-2
								
10/19/2017  17:46:33.254803	3.030945E-1	5.561801E-3	1.900811E-2	-1.015160E+1	1.712873E-2	1.691808E-2	7.205661E-2	3.419094E-2
10/19/2017  17:46:33.255803	6.160473E-2	1.319332E-2	2.409852E-2	-1.013632E+1	1.712873E-2	1.946206E-2	7.459952E-2	2.910311E-2
10/19/2017  17:46:33.256803	-7.566315E-2	1.573716E-2	1.646291E-2	-1.013887E+1	2.222863E-2	2.963800E-2	6.951371E-2	2.910311E-2
10/19/2017  17:46:33.257803	2.242926E-1	1.319332E-2	2.155331E-2	-1.013632E+1	2.477858E-2	2.963800E-2	7.205661E-2	3.164702E-2
10/19/2017  17:46:33.258803	3.081785E-1	1.064948E-2	1.900811E-2	-1.012869E+1	2.222863E-2	2.200605E-2	7.714242E-2	2.910311E-2
10/19/2017  17:46:33.259803	1.302387E-1	1.319332E-2	8.827299E-3	-1.013887E+1	9.478889E-3	1.946206E-2	7.205661E-2	3.164702E-2
10/19/2017  17:46:33.260803	-4.007518E-2	1.064948E-2	1.646291E-2	-1.015160E+1	1.457878E-2	2.709402E-2	8.222822E-2	3.419094E-2
10/19/2017  17:46:33.261803	-1.061671E-1	8.105642E-3	2.664372E-2	-1.013123E+1	1.457878E-2	9.286120E-3	7.714242E-2	3.927877E-2
10/19/2017  17:46:33.262803	3.618475E-2	2.591253E-2	8.827299E-3	-1.012869E+1	2.987847E-2	1.946206E-2	6.697081E-2	2.910311E-2
10/19/2017  17:46:33.263803	1.836206E-1	1.828100E-2	1.900811E-2	-1.014905E+1	1.967868E-2	2.455003E-2	7.205661E-2	2.910311E-2
10/19/2017  17:46:33.264803	1.937886E-1	-2.069720E-3	1.646291E-2	-1.013123E+1	2.477858E-2	2.200605E-2	7.968532E-2	2.401527E-2
10/19/2017  17:46:33.265803	-4.770118E-2	1.064948E-2	1.391770E-2	-1.013378E+1	1.967868E-2	1.946206E-2	7.714242E-2	3.673486E-2
10/19/2017  17:46:33.266803	5.967806E-4	2.082484E-2	1.391770E-2	-1.014142E+1	1.712873E-2	2.709402E-2	7.968532E-2	3.419094E-2
10/19/2017  17:46:33.267803	1.556586E-1	1.319332E-2	3.173413E-2	-1.013378E+1	1.712873E-2	1.183011E-2	7.968532E-2	2.910311E-2
10/19/2017  17:46:33.268803	2.802165E-1	1.064948E-2	1.900811E-2	-1.013632E+1	2.222863E-2	1.946206E-2	7.714242E-2	2.147136E-2
10/19/2017  17:46:33.269803	2.319186E-1	1.319332E-2	8.827299E-3	-1.012869E+1	2.222863E-2	1.946206E-2	6.442791E-2	2.147136E-2
10/19/2017  17:46:33.270803	1.200707E-1	1.064948E-2	2.409852E-2	-1.013632E+1	1.712873E-2	2.455003E-2	8.222822E-2	3.164702E-2
10/19/2017  17:46:33.271803	2.446286E-1	1.064948E-2	1.900811E-2	-1.011086E+1	1.967868E-2	1.691808E-2	7.714242E-2	2.910311E-2
10/19/2017  17:46:33.272803	3.768124E-1	1.573716E-2	1.646291E-2	-1.013378E+1	3.242842E-2	2.455003E-2	7.205661E-2	1.892744E-2
10/19/2017  17:46:33.273803	2.929265E-1	1.573716E-2	1.900811E-2	-1.015160E+1	1.967868E-2	1.691808E-2	7.205661E-2	3.164702E-2
10/19/2017  17:46:33.274803	2.420866E-1	4.741205E-4	1.646291E-2	-1.013378E+1	1.457878E-2	1.183011E-2	7.205661E-2	3.419094E-2
10/19/2017  17:46:33.275803	-1.341291E-1	1.319332E-2	1.137250E-2	-1.014142E+1	2.987847E-2	2.709402E-2	6.442791E-2	2.401527E-2
10/19/2017  17:46:33.276803	-3.756189E-1	1.828100E-2	3.682453E-2	-1.014396E+1	1.712873E-2	2.709402E-2	7.459952E-2	3.164702E-2
10/19/2017  17:46:33.277803	-3.349469E-1	1.064948E-2	1.900811E-2	-1.013123E+1	2.222863E-2	1.946206E-2	7.205661E-2	3.673486E-2
10/19/2017  17:46:33.278803	2.573385E-1	1.064948E-2	1.137250E-2	-1.013887E+1	1.457878E-2	1.946206E-2	7.714242E-2	2.147136E-2
10/19/2017  17:46:33.279803	9.258839E-1	1.828100E-2	2.155331E-2	-1.013887E+1	1.712873E-2	1.946206E-2	8.731403E-2	3.164702E-2
10/19/2017  17:46:33.280803	4.708664E-1	5.561801E-3	1.900811E-2	-1.012614E+1	2.477858E-2	2.709402E-2	6.951371E-2	3.673486E-2
10/19/2017  17:46:33.281803	-3.908709E-1	2.591253E-2	1.137250E-2	-1.012869E+1	2.987847E-2	2.709402E-2	6.951371E-2	2.147136E-2
10/19/2017  17:46:33.282803	-3.908709E-1	1.828100E-2	2.409852E-2	-1.014142E+1	2.477858E-2	2.963800E-2	7.714242E-2	2.655919E-2
10/19/2017  17:46:33.283803	2.522546E-1	-1.224508E-2	2.409852E-2	-1.014651E+1	1.829045E-3	1.691808E-2	7.205661E-2	3.419094E-2
10/19/2017  17:46:33.284803	5.967806E-4	1.064948E-2	8.827299E-3	-1.013378E+1	2.732853E-2	2.200605E-2	6.697081E-2	3.164702E-2
10/19/2017  17:46:33.285803	-2.078470E-1	1.828100E-2	1.900811E-2	-1.012614E+1	2.477858E-2	1.946206E-2	7.714242E-2	3.164702E-2
10/19/2017  17:46:33.286803	4.581564E-1	1.319332E-2	1.391770E-2	-1.013632E+1	2.477858E-2	2.455003E-2	7.205661E-2	2.910311E-2
								
10/19/2017  17:46:33.287803	4.378204E-1	1.064948E-2	1.900811E-2	-1.013123E+1	1.967868E-2	2.455003E-2	7.968532E-2	3.419094E-2
10/19/2017  17:46:33.288803	6.160473E-2	1.828100E-2	1.191689E-3	-1.013632E+1	2.987847E-2	2.455003E-2	6.697081E-2	2.655919E-2
10/19/2017  17:46:33.289803	-1.366711E-1	1.573716E-2	2.155331E-2	-1.013887E+1	1.457878E-2	2.963800E-2	8.222822E-2	4.182269E-2
10/19/2017  17:46:33.290803	-1.341291E-1	8.105642E-3	2.155331E-2	-1.010832E+1	2.222863E-2	2.455003E-2	7.714242E-2	3.927877E-2
10/19/2017  17:46:33.291803	-2.968170E-1	1.573716E-2	1.137250E-2	-1.013378E+1	2.732853E-2	1.946206E-2	7.459952E-2	3.164702E-2
10/19/2017  17:46:33.292803	-2.256410E-1	1.573716E-2	1.391770E-2	-1.014651E+1	1.712873E-2	2.963800E-2	6.697081E-2	2.147136E-2
10/19/2017  17:46:33.293803	-9.571210E-3	5.561801E-3	1.646291E-2	-1.013378E+1	1.202884E-2	1.946206E-2	7.968532E-2	4.182269E-2
10/19/2017  17:46:33.294803	-2.586870E-1	8.105642E-3	1.137250E-2	-1.013123E+1	2.732853E-2	1.946206E-2	7.205661E-2	3.164702E-2
10/19/2017  17:46:33.295803	-9.854113E-2	1.319332E-2	2.918892E-2	-1.014396E+1	2.732853E-2	1.691808E-2	7.205661E-2	3.164702E-2
10/19/2017  17:46:33.296803	1.839076E-2	8.105642E-3	2.409852E-2	-1.014142E+1	1.967868E-2	2.200605E-2	5.934210E-2	3.673486E-2
10/19/2017  17:46:33.297803	-1.061671E-1	1.064948E-2	1.137250E-2	-1.013887E+1	1.457878E-2	2.455003E-2	6.697081E-2	2.655919E-2
10/19/2017  17:46:33.298803	-2.129310E-1	2.082484E-2	1.646291E-2	-1.015415E+1	1.712873E-2	2.963800E-2	7.205661E-2	2.147136E-2
10/19/2017  17:46:33.299803	4.381074E-2	1.319332E-2	2.409852E-2	-1.013632E+1	1.712873E-2	2.200605E-2	8.222822E-2	4.182269E-2
10/19/2017  17:46:33.300803	4.454464E-1	2.591253E-2	1.391770E-2	-1.013378E+1	3.242842E-2	2.455003E-2	7.714242E-2	2.655919E-2
10/19/2017  17:46:33.301803	1.124447E-1	1.828100E-2	1.137250E-2	-1.014142E+1	2.222863E-2	2.200605E-2	7.205661E-2	2.401527E-2
10/19/2017  17:46:33.302803	-2.002210E-1	-4.613560E-3	2.664372E-2	-1.015160E+1	6.928941E-3	2.455003E-2	7.205661E-2	2.910311E-2
10/19/2017  17:46:33.303803	-6.272767E-1	5.561801E-3	1.900811E-2	-1.013123E+1	2.477858E-2	1.691808E-2	7.459952E-2	4.182269E-2
10/19/2017  17:46:33.304803	-8.941864E-1	1.573716E-2	1.137250E-2	-1.013632E+1	4.262821E-2	2.709402E-2	7.205661E-2	2.401527E-2
10/19/2017  17:46:33.305803	5.242483E-1	2.082484E-2	2.409852E-2	-1.013887E+1	1.712873E-2	2.963800E-2	7.968532E-2	2.910311E-2
10/19/2017  17:46:33.306803	1.177542E+0	5.561801E-3	1.900811E-2	-1.013123E+1	6.928941E-3	1.691808E-2	6.697081E-2	2.910311E-2
10/19/2017  17:46:33.307803	5.064543E-1	1.064948E-2	-1.353514E-3	-1.012614E+1	2.987847E-2	2.455003E-2	6.951371E-2	2.401527E-2
10/19/2017  17:46:33.308803	3.234305E-1	1.828100E-2	2.155331E-2	-1.013887E+1	1.967868E-2	3.218199E-2	7.968532E-2	2.147136E-2
10/19/2017  17:46:33.309803	1.200707E-1	5.561801E-3	2.918892E-2	-1.011596E+1	1.457878E-2	2.455003E-2	8.477112E-2	3.164702E-2
10/19/2017  17:46:33.310803	5.089963E-1	8.105642E-3	8.827299E-3	-1.013887E+1	2.477858E-2	1.691808E-2	7.205661E-2	2.910311E-2
10/19/2017  17:46:33.311803	8.597920E-1	1.828100E-2	1.391770E-2	-1.014396E+1	2.222863E-2	1.946206E-2	6.697081E-2	2.401527E-2
10/19/2017  17:46:33.312803	3.971484E-1	8.105642E-3	2.155331E-2	-1.012614E+1	9.478889E-3	2.455003E-2	7.714242E-2	3.164702E-2
10/19/2017  17:46:33.313803	-3.984969E-1	1.064948E-2	1.391770E-2	-1.013887E+1	2.477858E-2	1.946206E-2	8.477112E-2	2.401527E-2
10/19/2017  17:46:33.314803	-2.053050E-1	2.336868E-2	1.137250E-2	-1.015415E+1	2.732853E-2	2.200605E-2	6.951371E-2	2.655919E-2
10/19/2017  17:46:33.315803	-1.722591E-1	8.105642E-3	2.664372E-2	-1.013378E+1	1.202884E-2	1.946206E-2	8.222822E-2	3.419094E-2
10/19/2017  17:46:33.316803	-3.196949E-1	5.561801E-3	1.391770E-2	-1.013378E+1	1.967868E-2	4.198150E-3	6.697081E-2	2.401527E-2
10/19/2017  17:46:33.317803	1.200707E-1	2.591253E-2	1.900811E-2	-1.014651E+1	2.732853E-2	2.455003E-2	7.459952E-2	2.401527E-2
10/19/2017  17:46:33.318803	1.607426E-1	1.064948E-2	2.409852E-2	-1.013632E+1	1.457878E-2	3.218199E-2	7.968532E-2	3.673486E-2
10/19/2017  17:46:33.319803	1.226127E-1	1.828100E-2	1.137250E-2	-1.012359E+1	2.222863E-2	1.437409E-2	7.714242E-2	4.182269E-2
								
10/19/2017  17:46:33.320803	4.889474E-2	1.828100E-2	1.137250E-2	-1.013632E+1	2.477858E-2	1.437409E-2	6.951371E-2	1.638352E-2
10/19/2017  17:46:33.321803	4.126874E-2	5.561801E-3	2.409852E-2	-1.014651E+1	2.477858E-2	2.963800E-2	7.205661E-2	3.164702E-2
10/19/2017  17:46:33.322803	2.166666E-1	1.064948E-2	2.155331E-2	-1.013632E+1	2.477858E-2	1.946206E-2	6.951371E-2	3.419094E-2
10/19/2017  17:46:33.323803	3.234305E-1	1.064948E-2	1.900811E-2	-1.012869E+1	4.007827E-2	1.946206E-2	7.459952E-2	2.401527E-2
10/19/2017  17:46:33.324803	7.174401E-1	1.573716E-2	1.646291E-2	-1.015415E+1	2.732853E-2	2.200605E-2	7.459952E-2	2.401527E-2
10/19/2017  17:46:33.325803	9.106320E-1	1.064948E-2	2.664372E-2	-1.013123E+1	1.829045E-3	2.200605E-2	7.205661E-2	2.147136E-2
10/19/2017  17:46:33.326803	2.090406E-1	8.105642E-3	1.900811E-2	-1.013378E+1	2.222863E-2	1.691808E-2	7.714242E-2	3.927877E-2
10/19/2017  17:46:33.327803	-2.968170E-1	1.573716E-2	1.391770E-2	-1.013632E+1	2.987847E-2	2.200605E-2	6.951371E-2	4.182269E-2
10/19/2017  17:46:33.328803	-3.756189E-1	1.573716E-2	2.664372E-2	-1.012869E+1	1.967868E-2	2.963800E-2	7.205661E-2	2.147136E-2
10/19/2017  17:46:33.329803	6.538902E-1	1.064948E-2	1.900811E-2	-1.013632E+1	1.457878E-2	1.946206E-2	7.968532E-2	3.927877E-2
10/19/2017  17:46:33.330803	2.903845E-1	5.561801E-3	1.646291E-2	-1.014142E+1	2.222863E-2	9.286120E-3	7.205661E-2	3.419094E-2
10/19/2017  17:46:33.331803	-8.560564E-1	3.017961E-3	1.391770E-2	-1.013887E+1	2.732853E-2	2.709402E-2	7.205661E-2	3.164702E-2
10/19/2017  17:46:33.332803	-1.059416E+0	8.105642E-3	1.391770E-2	-1.014651E+1	1.457878E-2	3.218199E-2	7.205661E-2	3.164702E-2
10/19/2017  17:46:33.333803	-4.264588E-1	1.319332E-2	3.427933E-2	-1.013632E+1	2.222863E-2	9.286120E-3	7.968532E-2	3.673486E-2
10/19/2017  17:46:33.334803	4.047744E-1	8.105642E-3	1.137250E-2	-1.014142E+1	2.477858E-2	1.946206E-2	5.934210E-2	2.910311E-2
10/19/2017  17:46:33.335803	1.141954E+0	1.828100E-2	6.282096E-3	-1.014142E+1	1.457878E-2	2.455003E-2	7.714242E-2	2.655919E-2
10/19/2017  17:46:33.336803	2.598805E-1	1.319332E-2	2.664372E-2	-1.013378E+1	1.967868E-2	2.200605E-2	8.731403E-2	3.164702E-2
10/19/2017  17:46:33.337803	-4.137488E-1	1.064948E-2	1.646291E-2	-1.013378E+1	2.222863E-2	1.183011E-2	7.459952E-2	2.910311E-2
10/19/2017  17:46:33.338803	-6.628646E-1	8.105642E-3	1.900811E-2	-1.013378E+1	2.477858E-2	2.200605E-2	7.205661E-2	3.164702E-2
10/19/2017  17:46:33.339803	-4.162908E-1	1.064948E-2	1.646291E-2	-1.013378E+1	1.967868E-2	2.709402E-2	7.459952E-2	2.401527E-2
10/19/2017  17:46:33.340803	9.210870E-2	2.082484E-2	1.900811E-2	-1.013887E+1	2.987847E-2	1.437409E-2	7.205661E-2	4.182269E-2
10/19/2017  17:46:33.341803	5.397873E-2	1.319332E-2	1.391770E-2	-1.013123E+1	2.477858E-2	2.200605E-2	6.951371E-2	2.910311E-2
10/19/2017  17:46:33.342803	8.222774E-3	1.573716E-2	1.391770E-2	-1.014142E+1	2.732853E-2	2.455003E-2	7.714242E-2	2.655919E-2
10/19/2017  17:46:33.343803	-1.211321E-2	1.064948E-2	1.900811E-2	-1.014651E+1	1.457878E-2	1.691808E-2	7.714242E-2	2.910311E-2
10/19/2017  17:46:33.344803	1.302387E-1	5.561801E-3	1.646291E-2	-1.013378E+1	9.478889E-3	1.437409E-2	6.442791E-2	3.419094E-2
10/19/2017  17:46:33.345803	2.649645E-1	1.319332E-2	2.409852E-2	-1.014142E+1	1.967868E-2	2.200605E-2	7.459952E-2	3.164702E-2
10/19/2017  17:46:33.346803	4.835763E-1	2.591253E-2	2.155331E-2	-1.014396E+1	1.457878E-2	2.963800E-2	7.968532E-2	2.655919E-2
10/19/2017  17:46:33.347803	3.310565E-1	5.561801E-3	1.646291E-2	-1.014142E+1	1.967868E-2	1.437409E-2	6.951371E-2	3.673486E-2
10/19/2017  17:46:33.348803	3.259725E-1	1.064948E-2	1.137250E-2	-1.013378E+1	2.732853E-2	2.455003E-2	6.951371E-2	3.164702E-2
10/19/2017  17:46:33.349803	1.330677E-2	2.082484E-2	2.664372E-2	-1.016687E+1	2.222863E-2	1.946206E-2	7.205661E-2	2.655919E-2
10/19/2017  17:46:33.350803	1.076477E-2	1.319332E-2	2.409852E-2	-1.013378E+1	2.222863E-2	2.709402E-2	7.459952E-2	3.419094E-2
10/19/2017  17:46:33.351803	6.894782E-1	8.105642E-3	1.646291E-2	-1.013378E+1	1.967868E-2	2.455003E-2	7.205661E-2	2.910311E-2
10/19/2017  17:46:33.352803	2.395446E-1	2.082484E-2	2.155331E-2	-1.014651E+1	1.712873E-2	2.455003E-2	8.222822E-2	2.147136E-2
								
10/19/2017  17:46:33.353803	6.414672E-2	5.561801E-3	2.409852E-2	-1.014142E+1	1.202884E-2	1.183011E-2	7.968532E-2	3.927877E-2
10/19/2017  17:46:33.354803	-1.239611E-1	5.561801E-3	2.155331E-2	-1.013378E+1	2.987847E-2	1.437409E-2	7.205661E-2	3.927877E-2
10/19/2017  17:46:33.355803	-2.739390E-1	1.828100E-2	1.137250E-2	-1.014142E+1	2.987847E-2	2.455003E-2	6.697081E-2	2.655919E-2
10/19/2017  17:46:33.356803	-2.434350E-1	2.336868E-2	2.409852E-2	-1.015160E+1	2.477858E-2	1.183011E-2	7.968532E-2	3.164702E-2
10/19/2017  17:46:33.357803	-3.171529E-1	-4.613560E-3	1.646291E-2	-1.013378E+1	1.712873E-2	1.691808E-2	7.205661E-2	3.419094E-2
10/19/2017  17:46:33.358803	-5.024317E-2	1.064948E-2	8.827299E-3	-1.013887E+1	2.477858E-2	1.654165E-3	6.951371E-2	2.401527E-2
10/19/2017  17:46:33.359803	3.110075E-2	1.573716E-2	1.646291E-2	-1.013632E+1	2.222863E-2	1.946206E-2	7.459952E-2	3.673486E-2
10/19/2017  17:46:33.360803	2.039566E-1	1.319332E-2	1.646291E-2	-1.013632E+1	1.457878E-2	2.200605E-2	7.714242E-2	3.164702E-2
10/19/2017  17:46:33.361803	7.759061E-1	8.105642E-3	1.900811E-2	-1.014142E+1	3.242842E-2	1.437409E-2	7.968532E-2	2.655919E-2
10/19/2017  17:46:33.362803	1.032648E+0	1.319332E-2	8.827299E-3	-1.014142E+1	1.967868E-2	1.946206E-2	7.714242E-2	2.401527E-2
10/19/2017  17:46:33.363803	8.165780E-1	1.828100E-2	2.155331E-2	-1.013887E+1	2.987847E-2	2.963800E-2	7.968532E-2	2.401527E-2
10/19/2017  17:46:33.364803	5.013703E-1	1.573716E-2	2.664372E-2	-1.012869E+1	2.222863E-2	1.691808E-2	7.205661E-2	2.910311E-2
10/19/2017  17:46:33.365803	-7.645445E-1	1.319332E-2	1.900811E-2	-1.013887E+1	2.477858E-2	1.946206E-2	7.459952E-2	2.910311E-2
10/19/2017  17:46:33.366803	-1.646618E+0	1.573716E-2	1.900811E-2	-1.015415E+1	1.712873E-2	2.455003E-2	6.697081E-2	2.401527E-2
10/19/2017  17:46:33.367803	-9.196064E-1	1.064948E-2	2.409852E-2	-1.014142E+1	1.457878E-2	1.946206E-2	7.968532E-2	4.436661E-2
10/19/2017  17:46:33.368803	-4.515918E-2	8.105642E-3	2.155331E-2	-1.014905E+1	2.477858E-2	4.198150E-3	7.714242E-2	3.927877E-2
10/19/2017  17:46:33.369803	-1.366711E-1	1.319332E-2	1.391770E-2	-1.013632E+1	3.497837E-2	2.455003E-2	7.205661E-2	3.164702E-2
10/19/2017  17:46:33.370803	2.751325E-1	1.319332E-2	1.646291E-2	-1.014142E+1	1.202884E-2	2.709402E-2	8.222822E-2	2.910311E-2
10/19/2017  17:46:33.371803	6.055922E-1	8.105642E-3	8.827299E-3	-1.012614E+1	1.967868E-2	1.437409E-2	7.459952E-2	3.419094E-2
10/19/2017  17:46:33.372803	5.089963E-1	1.064948E-2	1.646291E-2	-1.014142E+1	2.987847E-2	2.200605E-2	6.188501E-2	2.910311E-2
10/19/2017  17:46:33.373803	-1.719720E-2	1.828100E-2	2.409852E-2	-1.014651E+1	2.222863E-2	3.218199E-2	7.968532E-2	2.401527E-2
10/19/2017  17:46:33.374803	1.582006E-1	8.105642E-3	2.409852E-2	-1.013378E+1	1.712873E-2	1.691808E-2	8.222822E-2	3.164702E-2
10/19/2017  17:46:33.375803	1.709106E-1	1.319332E-2	1.137250E-2	-1.013632E+1	2.987847E-2	1.946206E-2	6.951371E-2	2.910311E-2
10/19/2017  17:46:33.376803	1.076477E-2	1.064948E-2	1.900811E-2	-1.014396E+1	1.457878E-2	2.963800E-2	7.205661E-2	2.401527E-2
10/19/2017  17:46:33.377803	-8.328914E-2	8.105642E-3	2.155331E-2	-1.013887E+1	1.457878E-2	1.946206E-2	7.968532E-2	3.927877E-2
10/19/2017  17:46:33.378803	-1.290451E-1	-4.613560E-3	1.137250E-2	-1.014396E+1	3.242842E-2	1.946206E-2	6.951371E-2	3.164702E-2
10/19/2017  17:46:33.379803	-1.722591E-1	1.828100E-2	1.900811E-2	-1.014651E+1	2.222863E-2	2.709402E-2	7.205661E-2	2.401527E-2
10/19/2017  17:46:33.380803	-1.925950E-1	-2.069720E-3	2.664372E-2	-1.013378E+1	4.378993E-3	2.455003E-2	7.968532E-2	2.655919E-2
10/19/2017  17:46:33.381803	2.954685E-1	1.573716E-2	1.391770E-2	-1.013632E+1	2.222863E-2	2.455003E-2	7.714242E-2	2.910311E-2
10/19/2017  17:46:33.382803	-4.770118E-2	2.082484E-2	1.900811E-2	-1.014142E+1	1.967868E-2	2.455003E-2	5.934210E-2	2.910311E-2
10/19/2017  17:46:33.383803	-2.485190E-1	1.573716E-2	3.173413E-2	-1.012869E+1	1.202884E-2	2.455003E-2	8.222822E-2	3.419094E-2
10/19/2017  17:46:33.384803	-1.163351E-1	5.561801E-3	1.646291E-2	-1.012869E+1	2.477858E-2	1.183011E-2	7.968532E-2	3.927877E-2
10/19/2017  17:46:33.385803	1.607426E-1	1.319332E-2	6.282096E-3	-1.014142E+1	2.477858E-2	1.691808E-2	6.188501E-2	2.655919E-2
								
10/19/2017  17:46:33.386803	-1.315871E-1	1.319332E-2	1.900811E-2	-1.014142E+1	1.967868E-2	2.963800E-2	7.205661E-2	1.892744E-2
10/19/2017  17:46:33.387803	9.973469E-2	1.064948E-2	2.409852E-2	-1.012359E+1	1.457878E-2	2.455003E-2	8.222822E-2	2.910311E-2
10/19/2017  17:46:33.388803	5.652073E-2	8.105642E-3	1.646291E-2	-1.013123E+1	2.222863E-2	9.286120E-3	7.459952E-2	2.401527E-2
10/19/2017  17:46:33.389803	-1.824271E-1	1.064948E-2	1.137250E-2	-1.014651E+1	2.732853E-2	2.200605E-2	5.934210E-2	2.147136E-2
10/19/2017  17:46:33.390803	-5.993147E-1	1.319332E-2	6.282096E-3	-1.014905E+1	1.457878E-2	2.455003E-2	7.714242E-2	2.147136E-2
10/19/2017  17:46:33.391803	2.115826E-1	1.319332E-2	2.409852E-2	-1.012614E+1	1.457878E-2	1.691808E-2	7.459952E-2	3.673486E-2
10/19/2017  17:46:33.392803	8.318300E-1	8.105642E-3	2.155331E-2	-1.012869E+1	3.242842E-2	1.691808E-2	6.697081E-2	3.164702E-2
10/19/2017  17:46:33.393803	7.606541E-1	1.319332E-2	1.137250E-2	-1.014142E+1	3.242842E-2	2.963800E-2	7.459952E-2	2.147136E-2
10/19/2017  17:46:33.394803	9.640139E-1	1.064948E-2	2.155331E-2	-1.013887E+1	1.202884E-2	1.691808E-2	7.968532E-2	2.401527E-2
10/19/2017  17:46:33.395803	1.836206E-1	3.017961E-3	1.900811E-2	-1.013378E+1	1.967868E-2	1.437409E-2	7.459952E-2	3.673486E-2
10/19/2017  17:46:33.396803	7.685671E-2	1.064948E-2	8.827299E-3	-1.014142E+1	2.987847E-2	3.472597E-2	6.697081E-2	3.164702E-2
10/19/2017  17:46:33.397803	5.395003E-1	1.573716E-2	1.646291E-2	-1.013632E+1	1.967868E-2	2.709402E-2	7.714242E-2	2.147136E-2
10/19/2017  17:46:33.398803	1.431741E+0	4.741205E-4	2.155331E-2	-1.014142E+1	1.457878E-2	1.946206E-2	8.222822E-2	2.401527E-2
10/19/2017  17:46:33.399803	1.839076E-2	-7.157401E-3	1.900811E-2	-1.013632E+1	1.202884E-2	1.437409E-2	7.205661E-2	3.927877E-2
10/19/2017  17:46:33.400803	-7.391246E-1	1.064948E-2	1.137250E-2	-1.014142E+1	2.732853E-2	2.200605E-2	6.951371E-2	2.401527E-2
10/19/2017  17:46:33.401803	-4.442528E-1	2.336868E-2	2.155331E-2	-1.014142E+1	1.967868E-2	1.946206E-2	7.205661E-2	3.673486E-2
10/19/2017  17:46:33.402803	-4.515918E-2	1.319332E-2	1.900811E-2	-1.013123E+1	1.967868E-2	2.455003E-2	7.205661E-2	3.673486E-2
10/19/2017  17:46:33.403803	-2.841070E-1	1.064948E-2	1.900811E-2	-1.013378E+1	2.477858E-2	1.946206E-2	6.188501E-2	2.910311E-2
10/19/2017  17:46:33.404803	-1.722591E-1	2.082484E-2	8.827299E-3	-1.014651E+1	2.222863E-2	2.455003E-2	7.459952E-2	2.910311E-2
10/19/2017  17:46:33.405803	3.110075E-2	1.573716E-2	2.664372E-2	-1.013632E+1	1.202884E-2	1.691808E-2	7.968532E-2	4.182269E-2
10/19/2017  17:46:33.406803	-1.493811E-1	5.561801E-3	1.900811E-2	-1.010832E+1	2.222863E-2	1.946206E-2	7.714242E-2	3.673486E-2
10/19/2017  17:46:33.407803	-4.112068E-1	1.828100E-2	8.827299E-3	-1.013887E+1	3.242842E-2	2.200605E-2	6.951371E-2	3.164702E-2
10/19/2017  17:46:33.408803	-9.043544E-1	1.828100E-2	1.900811E-2	-1.015160E+1	1.967868E-2	2.709402E-2	7.714242E-2	2.401527E-2
10/19/2017  17:46:33.409803	-7.060786E-1	3.017961E-3	2.155331E-2	-1.013632E+1	1.967868E-2	1.437409E-2	7.714242E-2	2.910311E-2
10/19/2017  17:46:33.410803	2.471706E-1	1.573716E-2	1.900811E-2	-1.013123E+1	2.222863E-2	1.946206E-2	6.697081E-2	2.910311E-2
10/19/2017  17:46:33.411803	7.479441E-1	1.319332E-2	2.664372E-2	-1.013378E+1	2.477858E-2	3.218199E-2	7.459952E-2	2.401527E-2
10/19/2017  17:46:33.412803	5.852563E-1	8.105642E-3	2.409852E-2	-1.013632E+1	1.457878E-2	2.455003E-2	7.714242E-2	2.910311E-2
10/19/2017  17:46:33.413803	4.683244E-1	5.561801E-3	1.137250E-2	-1.013123E+1	1.712873E-2	1.437409E-2	7.205661E-2	2.910311E-2
10/19/2017  17:46:33.414803	-9.091514E-2	1.828100E-2	1.391770E-2	-1.014142E+1	3.497837E-2	1.946206E-2	6.951371E-2	2.910311E-2
10/19/2017  17:46:33.415803	4.962863E-1	1.828100E-2	2.155331E-2	-1.013887E+1	2.477858E-2	4.744590E-2	7.205661E-2	3.164702E-2
10/19/2017  17:46:33.416803	4.683244E-1	1.828100E-2	1.900811E-2	-1.012869E+1	1.712873E-2	1.946206E-2	8.222822E-2	3.164702E-2
10/19/2017  17:46:33.417803	5.680776E-3	5.561801E-3	1.137250E-2	-1.013632E+1	1.967868E-2	1.437409E-2	6.697081E-2	3.673486E-2
10/19/2017  17:46:33.418803	2.624225E-1	5.561801E-3	1.391770E-2	-1.014142E+1	1.967868E-2	1.946206E-2	6.188501E-2	2.655919E-2
								
10/19/2017  17:46:33.419803	2.522546E-1	2.082484E-2	2.664372E-2	-1.014651E+1	1.202884E-2	2.455003E-2	7.968532E-2	2.401527E-2
10/19/2017  17:46:33.420803	1.963306E-1	1.319332E-2	2.409852E-2	-1.012614E+1	1.967868E-2	1.437409E-2	8.477112E-2	3.673486E-2
10/19/2017  17:46:33.421803	2.268346E-1	3.017961E-3	1.900811E-2	-1.014142E+1	2.222863E-2	1.946206E-2	7.205661E-2	3.164702E-2
10/19/2017  17:46:33.422803	3.110075E-2	1.319332E-2	1.900811E-2	-1.014142E+1	6.928941E-3	2.963800E-2	6.697081E-2	2.147136E-2
10/19/2017  17:46:33.423803	5.143673E-2	1.319332E-2	1.391770E-2	-1.013887E+1	1.457878E-2	1.946206E-2	7.968532E-2	2.910311E-2
10/19/2017  17:46:33.424803	7.177272E-2	5.561801E-3	1.391770E-2	-1.013123E+1	2.987847E-2	1.946206E-2	6.951371E-2	4.436661E-2
10/19/2017  17:46:33.425803	1.124447E-1	1.573716E-2	1.137250E-2	-1.013123E+1	2.732853E-2	2.963800E-2	7.459952E-2	3.164702E-2
10/19/2017  17:46:33.426803	2.141246E-1	2.591253E-2	1.900811E-2	-1.014651E+1	1.457878E-2	1.946206E-2	7.968532E-2	3.164702E-2
10/19/2017  17:46:33.427803	4.962863E-1	5.561801E-3	1.391770E-2	-1.014651E+1	1.967868E-2	6.742135E-3	6.951371E-2	2.910311E-2
10/19/2017  17:46:33.428803	3.996904E-1	8.105642E-3	1.137250E-2	-1.013887E+1	2.732853E-2	2.200605E-2	6.697081E-2	3.164702E-2
10/19/2017  17:46:33.429803	-1.900530E-1	1.828100E-2	1.646291E-2	-1.013887E+1	1.967868E-2	2.709402E-2	8.222822E-2	3.164702E-2
10/19/2017  17:46:33.430803	-5.688107E-1	1.319332E-2	1.646291E-2	-1.013887E+1	1.712873E-2	1.691808E-2	7.968532E-2	3.164702E-2
10/19/2017  17:46:33.431803	1.404067E-1	5.561801E-3	1.900811E-2	-1.013632E+1	1.967868E-2	1.691808E-2	6.697081E-2	3.673486E-2
10/19/2017  17:46:33.432803	8.165780E-1	1.064948E-2	8.827299E-3	-1.013632E+1	1.967868E-2	2.455003E-2	6.951371E-2	2.910311E-2
10/19/2017  17:46:33.433803	5.039123E-1	2.591253E-2	1.137250E-2	-1.013887E+1	2.477858E-2	2.709402E-2	6.697081E-2	2.655919E-2
10/19/2017  17:46:33.434803	-2.129310E-1	1.828100E-2	2.409852E-2	-1.014142E+1	2.477858E-2	3.472597E-2	7.968532E-2	3.673486E-2
10/19/2017  17:46:33.435803	-2.841070E-1	5.561801E-3	2.155331E-2	-1.012869E+1	2.477858E-2	1.691808E-2	8.222822E-2	3.419094E-2
10/19/2017  17:46:33.436803	3.138778E-3	1.064948E-2	8.827299E-3	-1.013632E+1	2.477858E-2	1.183011E-2	6.697081E-2	1.892744E-2
10/19/2017  17:46:33.437803	1.556586E-1	2.591253E-2	1.137250E-2	-1.015160E+1	1.967868E-2	2.963800E-2	6.442791E-2	2.655919E-2
10/19/2017  17:46:33.438803	-7.566315E-2	1.828100E-2	2.918892E-2	-1.014142E+1	1.457878E-2	2.963800E-2	7.968532E-2	3.164702E-2
10/19/2017  17:46:33.439803	-5.459327E-1	-7.157401E-3	2.155331E-2	-1.014142E+1	2.222863E-2	1.437409E-2	8.222822E-2	3.419094E-2
10/19/2017  17:46:33.440803	-4.722148E-1	8.105642E-3	1.900811E-2	-1.013887E+1	3.242842E-2	1.691808E-2	6.951371E-2	3.673486E-2
10/19/2017  17:46:33.441803	-1.824271E-1	1.064948E-2	1.391770E-2	-1.014142E+1	1.712873E-2	2.200605E-2	5.934210E-2	3.164702E-2
10/19/2017  17:46:33.442803	1.683686E-1	2.082484E-2	1.391770E-2	-1.014651E+1	2.222863E-2	2.963800E-2	7.459952E-2	2.655919E-2
10/19/2017  17:46:33.443803	3.437665E-1	1.828100E-2	2.664372E-2	-1.013632E+1	1.457878E-2	2.200605E-2	8.222822E-2	4.945444E-2
10/19/2017  17:46:33.444803	4.276524E-1	3.017961E-3	2.664372E-2	-1.011850E+1	2.222863E-2	1.691808E-2	7.459952E-2	3.673486E-2
10/19/2017  17:46:33.445803	1.175287E-1	1.064948E-2	8.827299E-3	-1.013887E+1	2.477858E-2	1.946206E-2	6.951371E-2	2.147136E-2
10/19/2017  17:46:33.446803	-9.679043E-1	1.828100E-2	1.900811E-2	-1.014651E+1	1.712873E-2	2.200605E-2	8.222822E-2	2.401527E-2
10/19/2017  17:46:33.447803	-1.455968E+0	1.573716E-2	2.664372E-2	-1.014142E+1	1.457878E-2	2.200605E-2	7.714242E-2	3.164702E-2
10/19/2017  17:46:33.448803	-2.256410E-1	3.017961E-3	1.646291E-2	-1.012869E+1	2.477858E-2	1.946206E-2	7.205661E-2	3.673486E-2
10/19/2017  17:46:33.449803	2.929265E-1	1.064948E-2	1.191689E-3	-1.013887E+1	2.477858E-2	1.183011E-2	6.697081E-2	2.910311E-2
10/19/2017  17:46:33.450803	5.369583E-1	1.573716E-2	1.137250E-2	-1.014905E+1	2.477858E-2	2.963800E-2	6.697081E-2	2.910311E-2
10/19/2017  17:46:33.451803	9.563879E-1	1.319332E-2	8.827299E-3	-1.013887E+1	1.712873E-2	2.455003E-2	8.222822E-2	3.164702E-2
								
10/19/2017  17:46:33.452803	9.894339E-1	1.319332E-2	1.391770E-2	-1.012359E+1	2.732853E-2	1.437409E-2	7.714242E-2	3.927877E-2
10/19/2017  17:46:33.453803	1.030106E+0	1.573716E-2	1.137250E-2	-1.014142E+1	2.477858E-2	3.726996E-2	6.697081E-2	3.673486E-2
10/19/2017  17:46:33.454803	3.183465E-1	1.319332E-2	1.646291E-2	-1.014142E+1	1.712873E-2	2.709402E-2	7.205661E-2	2.655919E-2
10/19/2017  17:46:33.455803	-2.027630E-1	1.319332E-2	2.155331E-2	-1.013632E+1	1.457878E-2	1.946206E-2	7.968532E-2	3.673486E-2
10/19/2017  17:46:33.456803	-3.095269E-1	2.336868E-2	1.900811E-2	-1.014651E+1	2.987847E-2	1.183011E-2	7.714242E-2	4.182269E-2
10/19/2017  17:46:33.457803	-5.154288E-1	1.064948E-2	1.900811E-2	-1.013632E+1	2.477858E-2	1.946206E-2	6.951371E-2	3.164702E-2
10/19/2017  17:46:33.458803	-1.061671E-1	1.828100E-2	1.391770E-2	-1.014142E+1	3.242842E-2	2.709402E-2	7.714242E-2	2.910311E-2
10/19/2017  17:46:33.459803	1.099027E-1	1.319332E-2	1.900811E-2	-1.014651E+1	1.457878E-2	2.455003E-2	7.968532E-2	3.164702E-2
10/19/2017  17:46:33.460803	-5.532717E-2	3.017961E-3	1.391770E-2	-1.013123E+1	3.497837E-2	1.437409E-2	6.951371E-2	3.164702E-2
10/19/2017  17:46:33.461803	-1.468391E-1	1.064948E-2	1.137250E-2	-1.014142E+1	2.732853E-2	2.455003E-2	7.205661E-2	3.164702E-2
10/19/2017  17:46:33.462803	-2.002210E-1	2.082484E-2	1.391770E-2	-1.013887E+1	2.222863E-2	2.963800E-2	8.222822E-2	3.164702E-2
10/19/2017  17:46:33.463803	3.844384E-1	1.064948E-2	2.664372E-2	-1.014905E+1	1.457878E-2	2.200605E-2	7.714242E-2	2.910311E-2
10/19/2017  17:46:33.464803	6.668872E-2	3.017961E-3	1.900811E-2	-1.012614E+1	1.202884E-2	1.691808E-2	7.968532E-2	3.673486E-2
10/19/2017  17:46:33.465803	-1.036251E-1	1.064948E-2	1.137250E-2	-1.014905E+1	2.732853E-2	6.742135E-3	7.459952E-2	3.673486E-2
10/19/2017  17:46:33.466803	-1.214191E-1	1.064948E-2	1.900811E-2	-1.013632E+1	2.987847E-2	2.963800E-2	6.697081E-2	2.655919E-2
10/19/2017  17:46:33.467803	-1.925950E-1	1.828100E-2	1.646291E-2	-1.014905E+1	2.222863E-2	2.963800E-2	7.968532E-2	2.401527E-2
10/19/2017  17:46:33.468803	-3.832449E-1	1.064948E-2	2.918892E-2	-1.014142E+1	1.457878E-2	1.691808E-2	7.968532E-2	2.655919E-2
10/19/2017  17:46:33.469803	2.802165E-1	1.064948E-2	1.900811E-2	-1.013887E+1	1.202884E-2	1.437409E-2	7.968532E-2	4.182269E-2
10/19/2017  17:46:33.470803	2.776745E-1	1.064948E-2	6.282096E-3	-1.013123E+1	1.712873E-2	2.200605E-2	7.459952E-2	3.419094E-2
10/19/2017  17:46:33.471803	1.709106E-1	2.082484E-2	1.900811E-2	-1.013123E+1	2.222863E-2	1.946206E-2	7.459952E-2	2.147136E-2
10/19/2017  17:46:33.472803	4.889474E-2	1.573716E-2	1.900811E-2	-1.013632E+1	2.222863E-2	9.286120E-3	6.951371E-2	3.164702E-2
10/19/2017  17:46:33.473803	1.759946E-1	3.017961E-3	1.646291E-2	-1.013378E+1	2.222863E-2	2.200605E-2	7.205661E-2	3.673486E-2
10/19/2017  17:46:33.474803	-5.786917E-2	5.561801E-3	1.391770E-2	-1.013887E+1	1.457878E-2	2.963800E-2	7.459952E-2	2.910311E-2
10/19/2017  17:46:33.475803	1.937886E-1	1.573716E-2	1.137250E-2	-1.014396E+1	2.987847E-2	1.946206E-2	7.714242E-2	3.419094E-2
10/19/2017  17:46:33.476803	3.971484E-1	1.828100E-2	2.155331E-2	-1.014142E+1	1.967868E-2	2.709402E-2	7.205661E-2	3.164702E-2
10/19/2017  17:46:33.477803	4.479884E-1	1.064948E-2	2.155331E-2	-1.012869E+1	2.222863E-2	1.691808E-2	7.205661E-2	3.164702E-2
10/19/2017  17:46:33.478803	6.923072E-2	1.319332E-2	1.391770E-2	-1.013887E+1	2.222863E-2	1.183011E-2	7.205661E-2	3.164702E-2
10/19/2017  17:46:33.479803	-3.019009E-1	1.064948E-2	1.137250E-2	-1.013887E+1	3.497837E-2	2.200605E-2	6.951371E-2	3.419094E-2
10/19/2017  17:46:33.480803	-3.756189E-1	1.573716E-2	2.155331E-2	-1.013887E+1	2.222863E-2	2.963800E-2	7.205661E-2	2.655919E-2
10/19/2017  17:46:33.481803	6.411802E-1	2.336868E-2	2.155331E-2	-1.014651E+1	2.222863E-2	2.455003E-2	7.205661E-2	1.892744E-2
10/19/2017  17:46:33.482803	1.129244E+0	1.319332E-2	8.827299E-3	-1.014651E+1	1.457878E-2	1.183011E-2	7.459952E-2	3.673486E-2
10/19/2017  17:46:33.483803	1.937886E-1	3.017961E-3	1.391770E-2	-1.013123E+1	2.477858E-2	1.437409E-2	6.951371E-2	2.401527E-2
10/19/2017  17:46:33.484803	-4.366268E-1	1.828100E-2	1.391770E-2	-1.012614E+1	2.987847E-2	1.946206E-2	7.205661E-2	2.401527E-2
								
10/19/2017  17:46:33.485803	-6.298186E-1	2.591253E-2	2.664372E-2	-1.014142E+1	2.477858E-2	2.455003E-2	7.459952E-2	2.910311E-2
10/19/2017  17:46:33.486803	-5.866047E-1	1.064948E-2	2.409852E-2	-1.013887E+1	1.457878E-2	2.200605E-2	7.714242E-2	3.164702E-2
10/19/2017  17:46:33.487803	3.335985E-1	-2.069720E-3	1.646291E-2	-1.013123E+1	1.457878E-2	1.691808E-2	8.222822E-2	3.419094E-2
10/19/2017  17:46:33.488803	1.836206E-1	8.105642E-3	1.900811E-2	-1.012614E+1	2.222863E-2	1.691808E-2	7.968532E-2	3.927877E-2
10/19/2017  17:46:33.489803	1.429487E-1	1.573716E-2	2.918892E-2	-1.013632E+1	2.732853E-2	2.963800E-2	6.951371E-2	2.910311E-2
10/19/2017  17:46:33.490803	3.971484E-1	2.082484E-2	1.646291E-2	-1.014651E+1	2.222863E-2	2.709402E-2	7.714242E-2	2.910311E-2
10/19/2017  17:46:33.491803	5.064543E-1	1.064948E-2	2.409852E-2	-1.013887E+1	1.712873E-2	1.183011E-2	6.951371E-2	2.910311E-2
10/19/2017  17:46:33.492803	2.344606E-1	-7.157401E-3	1.900811E-2	-1.013378E+1	1.967868E-2	2.200605E-2	7.205661E-2	3.673486E-2
10/19/2017  17:46:33.493803	-1.214191E-1	1.064948E-2	1.391770E-2	-1.013123E+1	2.732853E-2	1.946206E-2	6.951371E-2	3.164702E-2
10/19/2017  17:46:33.494803	5.680776E-3	3.354405E-2	1.646291E-2	-1.013632E+1	2.732853E-2	2.963800E-2	7.459952E-2	2.655919E-2
10/19/2017  17:46:33.495803	1.048187E-1	2.082484E-2	2.155331E-2	-1.014396E+1	1.457878E-2	1.946206E-2	7.968532E-2	2.910311E-2
10/19/2017  17:46:33.496803	-4.515918E-2	3.017961E-3	2.409852E-2	-1.013632E+1	6.928941E-3	1.691808E-2	7.968532E-2	4.182269E-2
10/19/2017  17:46:33.497803	-1.719720E-2	5.561801E-3	1.391770E-2	-1.013123E+1	2.477858E-2	1.691808E-2	6.697081E-2	2.910311E-2
10/19/2017  17:46:33.498803	1.556586E-1	1.828100E-2	1.137250E-2	-1.014142E+1	3.752832E-2	1.946206E-2	6.951371E-2	2.147136E-2
10/19/2017  17:46:33.499803	2.395446E-1	1.828100E-2	2.409852E-2	-1.013378E+1	1.967868E-2	2.709402E-2	7.205661E-2	2.655919E-2
10/19/2017  17:46:33.500803	1.963306E-1	1.573716E-2	1.900811E-2	-1.014142E+1	1.457878E-2	1.437409E-2	8.731403E-2	3.164702E-2
10/19/2017  17:46:33.501803	1.429487E-1	8.105642E-3	1.391770E-2	-1.013378E+1	1.967868E-2	1.437409E-2	6.951371E-2	3.164702E-2
10/19/2017  17:46:33.502803	4.126874E-2	1.064948E-2	1.137250E-2	-1.013378E+1	2.477858E-2	1.946206E-2	6.951371E-2	2.147136E-2
10/19/2017  17:46:33.503803	-1.392131E-1	2.336868E-2	1.646291E-2	-1.015669E+1	2.222863E-2	2.709402E-2	7.714242E-2	2.910311E-2
10/19/2017  17:46:33.504803	-3.400309E-1	1.828100E-2	1.646291E-2	-1.014142E+1	1.967868E-2	1.691808E-2	7.968532E-2	3.164702E-2
10/19/2017  17:46:33.505803	-6.552386E-1	8.105642E-3	1.900811E-2	-1.014142E+1	1.967868E-2	1.691808E-2	6.697081E-2	3.927877E-2
10/19/2017  17:46:33.506803	-3.908709E-1	5.561801E-3	8.827299E-3	-1.013632E+1	2.732853E-2	2.200605E-2	6.697081E-2	3.164702E-2
10/19/2017  17:46:33.507803	2.293766E-1	2.845637E-2	1.646291E-2	-1.013887E+1	1.712873E-2	2.963800E-2	8.731403E-2	2.401527E-2
10/19/2017  17:46:33.508803	4.632404E-1	2.082484E-2	3.427933E-2	-1.013378E+1	2.222863E-2	2.200605E-2	7.968532E-2	3.419094E-2
10/19/2017  17:46:33.509803	1.251547E-1	4.741205E-4	2.409852E-2	-1.012614E+1	1.457878E-2	1.437409E-2	8.222822E-2	3.927877E-2
10/19/2017  17:46:33.510803	-4.770118E-2	1.573716E-2	1.646291E-2	-1.013887E+1	2.477858E-2	9.286120E-3	7.459952E-2	2.655919E-2
10/19/2017  17:46:33.511803	-2.942750E-1	4.741205E-4	1.646291E-2	-1.014396E+1	2.477858E-2	1.946206E-2	7.714242E-2	3.164702E-2
10/19/2017  17:46:33.512803	-3.069849E-1	1.064948E-2	1.900811E-2	-1.014651E+1	2.477858E-2	3.981394E-2	7.459952E-2	3.419094E-2
10/19/2017  17:46:33.513803	-2.637710E-1	8.105642E-3	2.664372E-2	-1.013378E+1	9.478889E-3	1.946206E-2	8.477112E-2	3.164702E-2
10/19/2017  17:46:33.514803	4.174844E-1	5.561801E-3	1.900811E-2	-1.013123E+1	2.477858E-2	-8.898203E-4	7.459952E-2	2.401527E-2
10/19/2017  17:46:33.515803	3.335985E-1	5.561801E-3	1.137250E-2	-1.014905E+1	2.987847E-2	2.200605E-2	6.442791E-2	3.419094E-2
10/19/2017  17:46:33.516803	5.471263E-1	1.828100E-2	1.137250E-2	-1.014142E+1	2.732853E-2	2.963800E-2	6.697081E-2	2.401527E-2
10/19/2017  17:46:33.517803	4.479884E-1	1.319332E-2	1.900811E-2	-1.012105E+1	2.732853E-2	1.946206E-2	7.205661E-2	3.419094E-2
								
10/19/2017  17:46:33.518803	1.200707E-1	1.319332E-2	1.646291E-2	-1.012869E+1	2.222863E-2	2.455003E-2	6.951371E-2	3.673486E-2
10/19/2017  17:46:33.519803	-3.451149E-1	8.105642E-3	1.137250E-2	-1.012869E+1	2.222863E-2	1.183011E-2	5.934210E-2	4.436661E-2
10/19/2017  17:46:33.520803	-3.499119E-2	1.828100E-2	8.827299E-3	-1.014651E+1	2.732853E-2	3.218199E-2	6.697081E-2	2.910311E-2
10/19/2017  17:46:33.521803	5.979662E-1	2.082484E-2	2.155331E-2	-1.014396E+1	2.222863E-2	2.963800E-2	7.205661E-2	3.164702E-2
10/19/2017  17:46:33.522803	7.148981E-1	1.319332E-2	2.918892E-2	-1.011850E+1	1.457878E-2	2.709402E-2	7.968532E-2	2.910311E-2
10/19/2017  17:46:33.523803	1.505746E-1	1.319332E-2	1.391770E-2	-1.012614E+1	2.477858E-2	1.183011E-2	7.205661E-2	1.892744E-2
10/19/2017  17:46:33.524803	2.347476E-2	8.105642E-3	1.137250E-2	-1.015924E+1	2.732853E-2	1.437409E-2	6.188501E-2	3.164702E-2
10/19/2017  17:46:33.525803	-2.917330E-1	1.319332E-2	2.155331E-2	-1.014651E+1	2.477858E-2	2.963800E-2	7.459952E-2	2.655919E-2
10/19/2017  17:46:33.526803	-1.061671E-1	2.082484E-2	2.918892E-2	-1.013887E+1	1.712873E-2	2.200605E-2	9.494273E-2	2.910311E-2
10/19/2017  17:46:33.527803	-6.549516E-2	1.064948E-2	2.155331E-2	-1.013887E+1	1.967868E-2	1.183011E-2	7.968532E-2	3.164702E-2
10/19/2017  17:46:33.528803	1.302387E-1	5.561801E-3	1.646291E-2	-1.014396E+1	1.967868E-2	1.946206E-2	7.459952E-2	2.401527E-2
10/19/2017  17:46:33.529803	6.668872E-2	1.064948E-2	1.900811E-2	-1.013887E+1	1.457878E-2	1.183011E-2	7.459952E-2	2.147136E-2
10/19/2017  17:46:33.530803	2.192086E-1	1.573716E-2	1.391770E-2	-1.013632E+1	2.477858E-2	2.963800E-2	8.222822E-2	3.164702E-2
10/19/2017  17:46:33.531803	7.685671E-2	8.105642E-3	2.409852E-2	-1.013632E+1	1.457878E-2	1.691808E-2	7.968532E-2	4.182269E-2
10/19/2017  17:46:33.532803	-2.230990E-1	1.573716E-2	1.391770E-2	-1.012359E+1	2.222863E-2	1.691808E-2	6.697081E-2	3.419094E-2
10/19/2017  17:46:33.533803	-2.228120E-2	1.828100E-2	1.137250E-2	-1.014142E+1	2.732853E-2	9.286120E-3	6.697081E-2	1.129569E-2
10/19/2017  17:46:33.534803	-3.244919E-2	1.573716E-2	2.155331E-2	-1.014651E+1	1.202884E-2	2.200605E-2	7.205661E-2	3.164702E-2
10/19/2017  17:46:33.535803	3.818964E-1	1.573716E-2	2.155331E-2	-1.013887E+1	1.967868E-2	1.946206E-2	7.459952E-2	3.673486E-2
10/19/2017  17:46:33.536803	1.271596E+0	8.105642E-3	2.155331E-2	-1.012105E+1	2.987847E-2	2.200605E-2	7.714242E-2	3.164702E-2
10/19/2017  17:46:33.537803	9.157160E-1	1.064948E-2	1.391770E-2	-1.012869E+1	2.222863E-2	1.946206E-2	7.459952E-2	2.910311E-2
10/19/2017  17:46:33.538803	-2.256410E-1	1.319332E-2	1.137250E-2	-1.013632E+1	9.478889E-3	1.946206E-2	7.205661E-2	3.419094E-2
10/19/2017  17:46:33.539803	-4.518788E-1	8.105642E-3	1.391770E-2	-1.011850E+1	1.967868E-2	1.691808E-2	7.968532E-2	3.673486E-2
10/19/2017  17:46:33.540803	-8.382625E-1	1.828100E-2	1.391770E-2	-1.014396E+1	2.987847E-2	1.946206E-2	6.951371E-2	4.436661E-2
10/19/2017  17:46:33.541803	-2.815650E-1	2.082484E-2	2.155331E-2	-1.012869E+1	2.222863E-2	2.963800E-2	7.205661E-2	2.401527E-2
10/19/2017  17:46:33.542803	-2.205570E-1	1.319332E-2	1.900811E-2	-1.013632E+1	1.457878E-2	1.691808E-2	8.222822E-2	2.147136E-2
10/19/2017  17:46:33.543803	1.353227E-1	8.105642E-3	1.646291E-2	-1.013632E+1	1.967868E-2	9.286120E-3	7.205661E-2	4.182269E-2
10/19/2017  17:46:33.544803	3.310565E-1	1.828100E-2	3.736893E-3	-1.014651E+1	2.477858E-2	2.709402E-2	6.951371E-2	2.655919E-2
10/19/2017  17:46:33.545803	2.090406E-1	1.319332E-2	2.409852E-2	-1.013632E+1	1.457878E-2	2.709402E-2	9.239983E-2	2.910311E-2
10/19/2017  17:46:33.546803	1.200707E-1	1.319332E-2	1.137250E-2	-1.013378E+1	2.477858E-2	1.183011E-2	7.459952E-2	3.419094E-2
10/19/2017  17:46:33.547803	2.855876E-2	2.591253E-2	8.827299E-3	-1.014396E+1	2.732853E-2	2.200605E-2	7.968532E-2	3.164702E-2
10/19/2017  17:46:33.548803	-2.228120E-2	1.319332E-2	1.191689E-3	-1.013632E+1	1.457878E-2	2.963800E-2	7.205661E-2	3.164702E-2
10/19/2017  17:46:33.549803	1.632846E-1	1.573716E-2	1.646291E-2	-1.012614E+1	2.222863E-2	1.437409E-2	7.714242E-2	3.419094E-2
10/19/2017  17:46:33.550803	-1.112511E-1	1.064948E-2	1.137250E-2	-1.013887E+1	3.497837E-2	2.455003E-2	6.697081E-2	3.419094E-2
								
10/19/2017  17:46:33.551803	-2.586870E-1	1.064948E-2	1.646291E-2	-1.015160E+1	1.712873E-2	2.963800E-2	7.205661E-2	2.401527E-2
10/19/2017  17:46:33.552803	-1.875110E-1	1.064948E-2	2.409852E-2	-1.013887E+1	1.457878E-2	1.183011E-2	8.222822E-2	1.892744E-2
10/19/2017  17:46:33.553803	1.099027E-1	2.082484E-2	1.646291E-2	-1.014651E+1	1.457878E-2	1.691808E-2	7.205661E-2	3.419094E-2
10/19/2017  17:46:33.554803	2.598805E-1	1.319332E-2	1.646291E-2	-1.013887E+1	2.477858E-2	1.946206E-2	7.205661E-2	3.164702E-2
10/19/2017  17:46:33.555803	3.208885E-1	3.017961E-3	1.900811E-2	-1.013632E+1	2.222863E-2	2.200605E-2	7.714242E-2	2.910311E-2
10/19/2017  17:46:33.556803	3.971484E-1	1.573716E-2	1.137250E-2	-1.014651E+1	2.222863E-2	2.200605E-2	7.714242E-2	3.927877E-2
10/19/2017  17:46:33.557803	3.768124E-1	1.064948E-2	1.391770E-2	-1.013632E+1	2.477858E-2	2.200605E-2	6.442791E-2	3.164702E-2
10/19/2017  17:46:33.558803	3.158045E-1	2.082484E-2	1.900811E-2	-1.013632E+1	2.222863E-2	2.963800E-2	7.968532E-2	2.401527E-2
10/19/2017  17:46:33.559803	-8.583114E-2	1.828100E-2	2.409852E-2	-1.013887E+1	1.457878E-2	2.200605E-2	7.968532E-2	4.436661E-2
10/19/2017  17:46:33.560803	-4.162908E-1	5.561801E-3	2.155331E-2	-1.014651E+1	1.712873E-2	1.946206E-2	7.205661E-2	3.164702E-2
10/19/2017  17:46:33.561803	-4.976348E-1	8.105642E-3	1.646291E-2	-1.013887E+1	1.967868E-2	1.691808E-2	7.714242E-2	2.401527E-2
10/19/2017  17:46:33.562803	-5.128868E-1	1.319332E-2	1.900811E-2	-1.013632E+1	2.222863E-2	1.691808E-2	6.951371E-2	3.164702E-2
10/19/2017  17:46:33.563803	-5.433907E-1	1.064948E-2	1.137250E-2	-1.013632E+1	2.222863E-2	1.437409E-2	7.459952E-2	2.655919E-2
10/19/2017  17:46:33.564803	-6.549516E-2	8.105642E-3	1.646291E-2	-1.013378E+1	2.477858E-2	2.455003E-2	7.205661E-2	2.655919E-2
10/19/2017  17:46:33.565803	5.115383E-1	2.845637E-2	1.646291E-2	-1.014651E+1	9.478889E-3	1.946206E-2	8.222822E-2	2.655919E-2
10/19/2017  17:46:33.566803	3.030945E-1	8.105642E-3	2.155331E-2	-1.013632E+1	1.202884E-2	1.437409E-2	6.951371E-2	3.673486E-2
10/19/2017  17:46:33.567803	1.505746E-1	1.319332E-2	1.137250E-2	-1.014142E+1	2.477858E-2	2.455003E-2	7.205661E-2	3.164702E-2
10/19/2017  17:46:33.568803	3.364275E-2	2.336868E-2	2.664372E-2	-1.013887E+1	2.477858E-2	2.455003E-2	7.459952E-2	2.655919E-2
10/19/2017  17:46:33.569803	1.454906E-1	5.561801E-3	2.664372E-2	-1.013123E+1	1.712873E-2	1.691808E-2	7.968532E-2	3.927877E-2
10/19/2017  17:46:33.570803	-1.211321E-2	3.017961E-3	1.137250E-2	-1.014142E+1	2.222863E-2	1.946206E-2	6.697081E-2	3.164702E-2
10/19/2017  17:46:33.571803	9.719269E-2	2.082484E-2	2.155331E-2	-1.013887E+1	2.222863E-2	2.455003E-2	7.714242E-2	2.147136E-2
10/19/2017  17:46:33.572803	3.691864E-1	2.845637E-2	2.409852E-2	-1.013378E+1	2.222863E-2	1.691808E-2	8.222822E-2	3.673486E-2
10/19/2017  17:46:33.573803	-5.786917E-2	5.561801E-3	1.137250E-2	-1.012869E+1	2.987847E-2	1.691808E-2	6.697081E-2	3.164702E-2
10/19/2017  17:46:33.574803	7.939871E-2	1.828100E-2	1.900811E-2	-1.013887E+1	1.202884E-2	2.963800E-2	7.205661E-2	1.892744E-2
10/19/2017  17:46:33.575803	-1.493811E-1	1.064948E-2	1.900811E-2	-1.014651E+1	1.457878E-2	1.946206E-2	7.968532E-2	3.164702E-2
