Parameters: 	Upper Cutoff:  500	Lower Cutoff: 20	Sample Rate (Hz): 1000	Frames Per Second30	Display Window Size (S)50	MVC Window Size (s): 50	Seconds To Acquire MVC: 3	Display Channel: 0
waveform	[0]	[1]	[2]	[3]	[4]	[5]	[6]	[7]
t0	10/19/2017  17:20:16.632320	10/19/2017  17:20:16.632320	10/19/2017  17:20:16.632320	10/19/2017  17:20:16.632320	10/19/2017  17:20:16.632320	10/19/2017  17:20:16.632320	10/19/2017  17:20:16.632320	10/19/2017  17:20:16.632320
delta t	0.001000	0.001000	0.001000	0.001000	0.001000	0.001000	0.001000	0.001000

time	Y[0]	Y[1]	Y[2]	Y[3]	Y[4]	Y[5]	Y[6]	Y[7]
10/19/2017  17:20:16.623055	5.522103E-1	1.319332E-2	1.900811E-2	-1.013123E+1	2.477858E-2	1.691808E-2	8.222822E-2	3.673486E-2
10/19/2017  17:20:16.624055	3.005525E-1	1.573716E-2	1.900811E-2	-1.012869E+1	3.242842E-2	2.200605E-2	7.205661E-2	3.673486E-2
10/19/2017  17:20:16.625055	1.988726E-1	1.319332E-2	2.155331E-2	-1.012869E+1	1.967868E-2	1.946206E-2	6.697081E-2	2.655919E-2
10/19/2017  17:20:16.626055	4.126874E-2	1.828100E-2	6.282096E-3	-1.014396E+1	1.712873E-2	1.437409E-2	8.222822E-2	2.147136E-2
10/19/2017  17:20:16.627055	8.956670E-2	2.336868E-2	2.409852E-2	-1.013632E+1	1.967868E-2	1.946206E-2	8.477112E-2	3.673486E-2
10/19/2017  17:20:16.628055	5.652073E-2	1.319332E-2	1.900811E-2	-1.013378E+1	2.222863E-2	9.286120E-3	7.714242E-2	3.419094E-2
10/19/2017  17:20:16.629055	2.601676E-2	-2.069720E-3	1.900811E-2	-1.013887E+1	1.457878E-2	1.946206E-2	7.205661E-2	3.164702E-2
10/19/2017  17:20:16.630055	8.222774E-3	1.064948E-2	1.646291E-2	-1.013632E+1	2.987847E-2	3.472597E-2	7.714242E-2	3.673486E-2
10/19/2017  17:20:16.631055	2.601676E-2	1.064948E-2	1.137250E-2	-1.014651E+1	2.732853E-2	2.455003E-2	7.205661E-2	2.655919E-2
10/19/2017  17:20:16.632055	-2.482320E-2	2.336868E-2	2.409852E-2	-1.014651E+1	1.457878E-2	1.183011E-2	7.459952E-2	2.401527E-2
10/19/2017  17:20:16.633055	-5.024317E-2	3.100021E-2	2.409852E-2	-1.013887E+1	2.477858E-2	1.946206E-2	8.222822E-2	3.673486E-2
10/19/2017  17:20:16.634055	-4.770118E-2	1.064948E-2	1.900811E-2	-1.013123E+1	2.222863E-2	1.691808E-2	7.205661E-2	4.182269E-2
10/19/2017  17:20:16.635055	-1.163351E-1	3.017961E-3	1.646291E-2	-1.014651E+1	1.967868E-2	1.946206E-2	7.714242E-2	3.164702E-2
10/19/2017  17:20:16.636055	-2.434350E-1	1.828100E-2	2.155331E-2	-1.013632E+1	2.222863E-2	1.946206E-2	7.714242E-2	3.673486E-2
10/19/2017  17:20:16.637055	-5.306807E-1	2.082484E-2	1.900811E-2	-1.012869E+1	3.752832E-2	2.963800E-2	8.222822E-2	3.164702E-2
10/19/2017  17:20:16.638055	-6.094827E-1	1.828100E-2	2.155331E-2	-1.014142E+1	1.712873E-2	1.691808E-2	8.222822E-2	3.164702E-2
10/19/2017  17:20:16.639055	-7.060786E-1	1.319332E-2	2.918892E-2	-1.013632E+1	1.202884E-2	1.437409E-2	7.714242E-2	4.691052E-2
10/19/2017  17:20:16.640055	-1.211321E-2	1.828100E-2	2.155331E-2	-1.014142E+1	2.222863E-2	1.946206E-2	7.714242E-2	3.419094E-2
10/19/2017  17:20:16.641055	8.521660E-1	1.573716E-2	1.137250E-2	-1.014142E+1	1.457878E-2	1.946206E-2	7.205661E-2	2.147136E-2
10/19/2017  17:20:16.642055	2.929265E-1	2.082484E-2	1.391770E-2	-1.013632E+1	1.712873E-2	2.709402E-2	8.222822E-2	2.655919E-2
10/19/2017  17:20:16.643055	4.988283E-1	2.336868E-2	2.409852E-2	-1.014905E+1	1.712873E-2	2.963800E-2	8.731403E-2	3.673486E-2
10/19/2017  17:20:16.644055	9.690979E-1	1.064948E-2	3.427933E-2	-1.014142E+1	1.457878E-2	1.946206E-2	7.968532E-2	3.164702E-2
10/19/2017  17:20:16.645055	8.852120E-1	1.573716E-2	1.391770E-2	-1.013887E+1	1.967868E-2	2.200605E-2	7.714242E-2	4.436661E-2
10/19/2017  17:20:16.646055	2.090406E-1	1.319332E-2	1.391770E-2	-1.012869E+1	2.477858E-2	2.963800E-2	7.459952E-2	3.673486E-2
10/19/2017  17:20:16.647055	8.956670E-2	1.828100E-2	1.646291E-2	-1.014651E+1	1.712873E-2	2.455003E-2	7.459952E-2	1.638352E-2
10/19/2017  17:20:16.648055	1.759946E-1	1.828100E-2	2.664372E-2	-1.012614E+1	1.457878E-2	1.946206E-2	8.985693E-2	3.419094E-2
10/19/2017  17:20:16.649055	1.632846E-1	1.319332E-2	1.391770E-2	-1.013632E+1	2.477858E-2	2.200605E-2	7.714242E-2	3.673486E-2
10/19/2017  17:20:16.650055	1.429487E-1	8.105642E-3	2.155331E-2	-1.013123E+1	1.712873E-2	1.946206E-2	6.951371E-2	3.164702E-2
10/19/2017  17:20:16.651055	1.429487E-1	5.561801E-3	1.137250E-2	-1.013378E+1	2.477858E-2	1.946206E-2	6.951371E-2	3.419094E-2
10/19/2017  17:20:16.652055	1.709106E-1	2.082484E-2	1.391770E-2	-1.015160E+1	2.987847E-2	2.963800E-2	7.714242E-2	2.401527E-2
10/19/2017  17:20:16.653055	9.465070E-2	2.591253E-2	1.391770E-2	-1.013887E+1	1.202884E-2	2.963800E-2	8.477112E-2	2.655919E-2
10/19/2017  17:20:16.654055	-2.482320E-2	1.319332E-2	2.664372E-2	-1.013632E+1	1.457878E-2	2.200605E-2	7.714242E-2	3.673486E-2
10/19/2017  17:20:16.655055	-8.328914E-2	1.064948E-2	2.409852E-2	-1.013123E+1	1.202884E-2	1.946206E-2	8.222822E-2	4.182269E-2
								
10/19/2017  17:20:16.656055	-1.748011E-1	5.561801E-3	1.137250E-2	-1.012359E+1	1.712873E-2	9.286120E-3	6.697081E-2	3.927877E-2
10/19/2017  17:20:16.657055	-2.154730E-1	2.336868E-2	8.827299E-3	-1.013378E+1	2.477858E-2	3.726996E-2	7.459952E-2	3.164702E-2
10/19/2017  17:20:16.658055	-1.239611E-1	3.100021E-2	1.900811E-2	-1.013887E+1	2.477858E-2	2.455003E-2	7.205661E-2	2.401527E-2
10/19/2017  17:20:16.659055	-5.786917E-2	1.573716E-2	2.664372E-2	-1.013887E+1	1.457878E-2	9.286120E-3	8.477112E-2	3.164702E-2
10/19/2017  17:20:16.660055	8.448270E-2	5.561801E-3	2.664372E-2	-1.013123E+1	1.202884E-2	1.691808E-2	7.459952E-2	3.927877E-2
10/19/2017  17:20:16.661055	1.200707E-1	1.064948E-2	1.646291E-2	-1.012869E+1	2.987847E-2	1.183011E-2	7.205661E-2	4.182269E-2
10/19/2017  17:20:16.662055	1.429487E-1	1.828100E-2	1.391770E-2	-1.014651E+1	3.497837E-2	1.946206E-2	7.205661E-2	2.401527E-2
10/19/2017  17:20:16.663055	1.480326E-1	1.828100E-2	1.900811E-2	-1.013887E+1	2.222863E-2	1.691808E-2	7.459952E-2	3.164702E-2
10/19/2017  17:20:16.664055	1.658266E-1	2.591253E-2	2.664372E-2	-1.014142E+1	2.477858E-2	1.183011E-2	8.222822E-2	3.673486E-2
10/19/2017  17:20:16.665055	8.448270E-2	8.105642E-3	1.900811E-2	-1.013378E+1	2.222863E-2	1.691808E-2	7.714242E-2	2.910311E-2
10/19/2017  17:20:16.666055	8.702470E-2	4.741205E-4	1.646291E-2	-1.012614E+1	9.478889E-3	1.946206E-2	7.459952E-2	3.419094E-2
10/19/2017  17:20:16.667055	7.177272E-2	1.573716E-2	1.137250E-2	-1.013378E+1	2.732853E-2	1.946206E-2	7.459952E-2	3.164702E-2
10/19/2017  17:20:16.668055	3.872675E-2	2.082484E-2	1.900811E-2	-1.012869E+1	3.242842E-2	2.709402E-2	7.714242E-2	2.910311E-2
10/19/2017  17:20:16.669055	5.680776E-3	1.573716E-2	1.900811E-2	-1.014651E+1	1.457878E-2	1.946206E-2	8.222822E-2	3.673486E-2
10/19/2017  17:20:16.670055	2.601676E-2	1.319332E-2	1.900811E-2	-1.013378E+1	2.732853E-2	1.946206E-2	7.714242E-2	4.436661E-2
10/19/2017  17:20:16.671055	4.889474E-2	1.319332E-2	2.409852E-2	-1.013378E+1	2.477858E-2	1.946206E-2	7.968532E-2	2.910311E-2
10/19/2017  17:20:16.672055	4.889474E-2	1.319332E-2	1.900811E-2	-1.013123E+1	1.712873E-2	2.200605E-2	7.205661E-2	2.401527E-2
10/19/2017  17:20:16.673055	1.076477E-2	1.319332E-2	1.137250E-2	-1.013632E+1	2.222863E-2	2.200605E-2	7.714242E-2	3.164702E-2
10/19/2017  17:20:16.674055	2.347476E-2	1.828100E-2	2.155331E-2	-1.013123E+1	1.457878E-2	1.691808E-2	8.222822E-2	3.164702E-2
10/19/2017  17:20:16.675055	-1.945217E-3	1.064948E-2	1.137250E-2	-1.013632E+1	2.222863E-2	2.200605E-2	7.459952E-2	3.927877E-2
10/19/2017  17:20:16.676055	2.347476E-2	4.741205E-4	1.900811E-2	-1.013632E+1	2.222863E-2	2.200605E-2	7.459952E-2	4.945444E-2
10/19/2017  17:20:16.677055	3.110075E-2	1.573716E-2	1.900811E-2	-1.011341E+1	2.477858E-2	2.455003E-2	6.951371E-2	3.164702E-2
10/19/2017  17:20:16.678055	4.635274E-2	1.828100E-2	1.391770E-2	-1.013632E+1	2.987847E-2	1.946206E-2	7.459952E-2	2.147136E-2
10/19/2017  17:20:16.679055	3.110075E-2	1.828100E-2	1.646291E-2	-1.016178E+1	2.222863E-2	2.455003E-2	6.697081E-2	2.910311E-2
10/19/2017  17:20:16.680055	5.397873E-2	1.828100E-2	2.664372E-2	-1.013632E+1	1.712873E-2	1.946206E-2	8.222822E-2	2.910311E-2
10/19/2017  17:20:16.681055	2.601676E-2	1.064948E-2	2.409852E-2	-1.014651E+1	1.457878E-2	4.198150E-3	7.459952E-2	3.673486E-2
10/19/2017  17:20:16.682055	4.635274E-2	4.741205E-4	2.409852E-2	-1.012869E+1	1.967868E-2	1.691808E-2	7.714242E-2	3.673486E-2
10/19/2017  17:20:16.683055	3.138778E-3	1.573716E-2	1.646291E-2	-1.013887E+1	2.477858E-2	2.709402E-2	9.239983E-2	3.164702E-2
10/19/2017  17:20:16.684055	5.680776E-3	1.828100E-2	6.282096E-3	-1.014142E+1	2.987847E-2	1.437409E-2	6.951371E-2	2.910311E-2
10/19/2017  17:20:16.685055	-2.482320E-2	2.082484E-2	1.900811E-2	-1.014142E+1	2.477858E-2	2.709402E-2	7.205661E-2	3.164702E-2
10/19/2017  17:20:16.686055	-9.571210E-3	1.573716E-2	3.936974E-2	-1.012869E+1	2.477858E-2	2.455003E-2	7.968532E-2	3.673486E-2
10/19/2017  17:20:16.687055	-1.465521E-2	3.017961E-3	2.664372E-2	-1.013378E+1	1.712873E-2	1.437409E-2	8.222822E-2	3.673486E-2
10/19/2017  17:20:16.688055	4.635274E-2	1.064948E-2	1.137250E-2	-1.012869E+1	3.242842E-2	9.286120E-3	7.714242E-2	3.673486E-2
								
10/19/2017  17:20:16.689055	8.448270E-2	1.573716E-2	1.137250E-2	-1.013378E+1	2.477858E-2	1.946206E-2	7.205661E-2	3.164702E-2
10/19/2017  17:20:16.690055	8.194071E-2	1.573716E-2	1.391770E-2	-1.014905E+1	3.242842E-2	2.455003E-2	6.697081E-2	2.401527E-2
10/19/2017  17:20:16.691055	7.431471E-2	1.573716E-2	2.155331E-2	-1.014651E+1	1.967868E-2	2.963800E-2	8.477112E-2	2.401527E-2
10/19/2017  17:20:16.692055	7.939871E-2	1.319332E-2	2.664372E-2	-1.012869E+1	1.712873E-2	3.981394E-2	7.968532E-2	3.927877E-2
10/19/2017  17:20:16.693055	7.939871E-2	3.017961E-3	1.646291E-2	-1.012105E+1	1.457878E-2	1.437409E-2	7.459952E-2	3.419094E-2
10/19/2017  17:20:16.694055	4.381074E-2	1.319332E-2	1.391770E-2	-1.013632E+1	2.222863E-2	1.691808E-2	7.714242E-2	2.910311E-2
10/19/2017  17:20:16.695055	7.431471E-2	2.591253E-2	1.137250E-2	-1.013632E+1	3.242842E-2	1.946206E-2	7.205661E-2	2.401527E-2
10/19/2017  17:20:16.696055	8.956670E-2	1.828100E-2	1.646291E-2	-1.014396E+1	2.222863E-2	2.455003E-2	7.714242E-2	2.910311E-2
10/19/2017  17:20:16.697055	8.448270E-2	1.573716E-2	1.391770E-2	-1.014905E+1	1.202884E-2	1.946206E-2	7.459952E-2	3.673486E-2
10/19/2017  17:20:16.698055	7.939871E-2	1.573716E-2	2.664372E-2	-1.013123E+1	1.457878E-2	2.455003E-2	7.968532E-2	3.164702E-2
10/19/2017  17:20:16.699055	5.906273E-2	1.064948E-2	1.900811E-2	-1.012105E+1	9.478889E-3	1.183011E-2	7.459952E-2	3.164702E-2
10/19/2017  17:20:16.700055	8.194071E-2	8.105642E-3	8.827299E-3	-1.013887E+1	2.477858E-2	9.286120E-3	7.205661E-2	3.419094E-2
10/19/2017  17:20:16.701055	7.685671E-2	1.828100E-2	1.137250E-2	-1.013887E+1	3.497837E-2	2.709402E-2	6.951371E-2	2.655919E-2
10/19/2017  17:20:16.702055	7.939871E-2	1.828100E-2	2.409852E-2	-1.013887E+1	2.222863E-2	2.963800E-2	7.459952E-2	2.655919E-2
10/19/2017  17:20:16.703055	2.347476E-2	1.319332E-2	2.155331E-2	-1.013378E+1	1.829045E-3	2.455003E-2	7.459952E-2	2.401527E-2
10/19/2017  17:20:16.704055	-5.532717E-2	1.064948E-2	2.155331E-2	-1.012869E+1	2.477858E-2	1.691808E-2	8.222822E-2	3.927877E-2
10/19/2017  17:20:16.705055	-9.091514E-2	1.319332E-2	2.155331E-2	-1.013378E+1	2.477858E-2	1.946206E-2	7.459952E-2	2.910311E-2
10/19/2017  17:20:16.706055	-6.803716E-2	1.573716E-2	1.391770E-2	-1.014396E+1	3.242842E-2	1.946206E-2	7.968532E-2	3.164702E-2
10/19/2017  17:20:16.707055	-2.990719E-2	2.082484E-2	2.155331E-2	-1.014905E+1	2.222863E-2	2.963800E-2	7.968532E-2	3.164702E-2
10/19/2017  17:20:16.708055	-7.029213E-3	1.319332E-2	2.664372E-2	-1.013123E+1	1.712873E-2	2.455003E-2	8.222822E-2	3.419094E-2
10/19/2017  17:20:16.709055	3.364275E-2	5.561801E-3	2.155331E-2	-1.012869E+1	1.457878E-2	1.691808E-2	8.477112E-2	2.655919E-2
10/19/2017  17:20:16.710055	3.872675E-2	8.105642E-3	1.391770E-2	-1.014651E+1	1.967868E-2	2.455003E-2	7.459952E-2	2.910311E-2
10/19/2017  17:20:16.711055	7.177272E-2	2.082484E-2	1.391770E-2	-1.013632E+1	1.967868E-2	2.200605E-2	7.205661E-2	3.164702E-2
10/19/2017  17:20:16.712055	8.956670E-2	1.828100E-2	1.900811E-2	-1.014142E+1	1.967868E-2	2.455003E-2	6.951371E-2	2.401527E-2
10/19/2017  17:20:16.713055	7.177272E-2	1.064948E-2	2.155331E-2	-1.013632E+1	1.457878E-2	1.946206E-2	8.477112E-2	3.419094E-2
10/19/2017  17:20:16.714055	7.177272E-2	1.828100E-2	1.900811E-2	-1.013632E+1	1.967868E-2	2.200605E-2	7.205661E-2	3.673486E-2
10/19/2017  17:20:16.715055	8.448270E-2	5.561801E-3	1.137250E-2	-1.013632E+1	2.222863E-2	1.183011E-2	7.714242E-2	3.164702E-2
10/19/2017  17:20:16.716055	8.194071E-2	2.082484E-2	1.391770E-2	-1.014142E+1	3.242842E-2	2.455003E-2	8.731403E-2	3.419094E-2
10/19/2017  17:20:16.717055	8.194071E-2	2.082484E-2	3.173413E-2	-1.014142E+1	2.987847E-2	2.963800E-2	7.968532E-2	2.655919E-2
10/19/2017  17:20:16.718055	7.939871E-2	8.105642E-3	1.900811E-2	-1.014142E+1	2.222863E-2	2.455003E-2	7.714242E-2	3.164702E-2
10/19/2017  17:20:16.719055	3.618475E-2	1.573716E-2	1.900811E-2	-1.013887E+1	9.478889E-3	1.691808E-2	8.477112E-2	3.927877E-2
10/19/2017  17:20:16.720055	1.048187E-1	1.573716E-2	1.137250E-2	-1.012614E+1	2.732853E-2	1.437409E-2	8.222822E-2	4.182269E-2
10/19/2017  17:20:16.721055	1.505746E-1	1.319332E-2	1.137250E-2	-1.014142E+1	3.752832E-2	2.963800E-2	7.205661E-2	2.401527E-2
								
10/19/2017  17:20:16.722055	1.531166E-1	1.573716E-2	2.155331E-2	-1.014651E+1	2.222863E-2	2.709402E-2	7.459952E-2	3.164702E-2
10/19/2017  17:20:16.723055	8.194071E-2	1.573716E-2	2.664372E-2	-1.013887E+1	1.457878E-2	2.963800E-2	8.222822E-2	3.673486E-2
10/19/2017  17:20:16.724055	8.222774E-3	-4.613560E-3	2.409852E-2	-1.012869E+1	1.457878E-2	1.691808E-2	8.477112E-2	4.182269E-2
10/19/2017  17:20:16.725055	-7.057916E-2	5.561801E-3	1.391770E-2	-1.013632E+1	1.967868E-2	-8.898203E-4	7.968532E-2	2.910311E-2
10/19/2017  17:20:16.726055	-1.112511E-1	3.354405E-2	1.137250E-2	-1.013378E+1	3.497837E-2	1.946206E-2	7.459952E-2	3.419094E-2
10/19/2017  17:20:16.727055	1.584877E-2	2.082484E-2	1.646291E-2	-1.014651E+1	2.477858E-2	2.709402E-2	7.205661E-2	2.910311E-2
10/19/2017  17:20:16.728055	1.839076E-2	8.105642E-3	2.409852E-2	-1.014905E+1	1.202884E-2	2.455003E-2	7.205661E-2	2.401527E-2
10/19/2017  17:20:16.729055	3.618475E-2	1.319332E-2	1.646291E-2	-1.012869E+1	1.712873E-2	2.455003E-2	8.477112E-2	3.164702E-2
10/19/2017  17:20:16.730055	7.685671E-2	1.319332E-2	1.391770E-2	-1.014142E+1	2.477858E-2	2.200605E-2	8.222822E-2	3.164702E-2
10/19/2017  17:20:16.731055	6.414672E-2	8.105642E-3	1.391770E-2	-1.013123E+1	2.987847E-2	1.183011E-2	7.714242E-2	3.673486E-2
10/19/2017  17:20:16.732055	9.973469E-2	5.561801E-3	1.137250E-2	-1.012869E+1	3.497837E-2	1.183011E-2	6.951371E-2	2.910311E-2
10/19/2017  17:20:16.733055	1.099027E-1	1.319332E-2	1.646291E-2	-1.013887E+1	2.987847E-2	2.455003E-2	6.951371E-2	3.164702E-2
10/19/2017  17:20:16.734055	8.194071E-2	1.573716E-2	1.646291E-2	-1.014396E+1	6.928941E-3	2.709402E-2	6.697081E-2	2.401527E-2
10/19/2017  17:20:16.735055	2.855876E-2	1.319332E-2	1.137250E-2	-1.012869E+1	2.477858E-2	2.200605E-2	7.714242E-2	3.419094E-2
10/19/2017  17:20:16.736055	6.160473E-2	1.573716E-2	2.409852E-2	-1.013632E+1	1.202884E-2	1.437409E-2	9.239983E-2	3.164702E-2
10/19/2017  17:20:16.737055	7.939871E-2	8.105642E-3	1.391770E-2	-1.013632E+1	1.967868E-2	1.183011E-2	7.205661E-2	3.673486E-2
10/19/2017  17:20:16.738055	5.397873E-2	1.573716E-2	1.137250E-2	-1.013632E+1	2.987847E-2	2.200605E-2	7.205661E-2	3.673486E-2
10/19/2017  17:20:16.739055	7.685671E-2	2.082484E-2	2.409852E-2	-1.015415E+1	2.222863E-2	2.455003E-2	7.459952E-2	2.401527E-2
10/19/2017  17:20:16.740055	2.115826E-1	1.319332E-2	1.646291E-2	-1.014651E+1	1.202884E-2	2.709402E-2	8.477112E-2	3.419094E-2
10/19/2017  17:20:16.741055	1.582006E-1	1.064948E-2	2.664372E-2	-1.010832E+1	1.457878E-2	1.691808E-2	9.239983E-2	3.927877E-2
10/19/2017  17:20:16.742055	1.327807E-1	1.319332E-2	2.409852E-2	-1.012869E+1	2.732853E-2	1.437409E-2	7.205661E-2	3.927877E-2
10/19/2017  17:20:16.743055	8.194071E-2	1.064948E-2	1.137250E-2	-1.015160E+1	2.732853E-2	1.946206E-2	5.934210E-2	2.910311E-2
10/19/2017  17:20:16.744055	1.099027E-1	1.064948E-2	2.409852E-2	-1.014142E+1	2.732853E-2	2.963800E-2	7.714242E-2	2.910311E-2
10/19/2017  17:20:16.745055	5.143673E-2	2.591253E-2	2.155331E-2	-1.013887E+1	1.457878E-2	2.963800E-2	8.477112E-2	2.910311E-2
10/19/2017  17:20:16.746055	1.276967E-1	8.105642E-3	1.900811E-2	-1.013632E+1	9.478889E-3	1.183011E-2	8.477112E-2	4.182269E-2
10/19/2017  17:20:16.747055	2.522546E-1	1.319332E-2	1.900811E-2	-1.013887E+1	2.477858E-2	1.946206E-2	8.985693E-2	3.419094E-2
10/19/2017  17:20:16.748055	1.454906E-1	1.064948E-2	2.664372E-2	-1.013378E+1	2.732853E-2	1.437409E-2	7.205661E-2	4.182269E-2
10/19/2017  17:20:16.749055	2.093276E-2	1.064948E-2	1.137250E-2	-1.013632E+1	2.477858E-2	1.946206E-2	5.679920E-2	2.655919E-2
10/19/2017  17:20:16.750055	-6.549516E-2	2.082484E-2	2.918892E-2	-1.013887E+1	1.712873E-2	3.472597E-2	7.459952E-2	2.655919E-2
10/19/2017  17:20:16.751055	-1.620911E-1	1.064948E-2	1.646291E-2	-1.013887E+1	2.477858E-2	2.200605E-2	7.714242E-2	3.164702E-2
10/19/2017  17:20:16.752055	1.076477E-2	1.573716E-2	2.409852E-2	-1.013887E+1	1.712873E-2	1.183011E-2	8.222822E-2	3.164702E-2
10/19/2017  17:20:16.753055	1.505746E-1	1.319332E-2	2.409852E-2	-1.014142E+1	1.202884E-2	2.200605E-2	7.968532E-2	4.182269E-2
10/19/2017  17:20:16.754055	9.210870E-2	1.064948E-2	1.900811E-2	-1.012869E+1	2.222863E-2	2.709402E-2	8.222822E-2	4.182269E-2
								
10/19/2017  17:20:16.755055	1.480326E-1	8.105642E-3	1.391770E-2	-1.014142E+1	2.477858E-2	2.200605E-2	6.951371E-2	3.164702E-2
10/19/2017  17:20:16.756055	8.702470E-2	1.828100E-2	1.391770E-2	-1.013632E+1	2.477858E-2	3.726996E-2	7.205661E-2	2.910311E-2
10/19/2017  17:20:16.757055	-1.010831E-1	3.608789E-2	2.409852E-2	-1.014142E+1	9.478889E-3	2.455003E-2	8.222822E-2	3.164702E-2
10/19/2017  17:20:16.758055	5.906273E-2	1.064948E-2	2.664372E-2	-1.014142E+1	1.457878E-2	1.691808E-2	8.222822E-2	3.927877E-2
10/19/2017  17:20:16.759055	9.465070E-2	-4.613560E-3	2.155331E-2	-1.014396E+1	1.712873E-2	1.437409E-2	7.714242E-2	4.182269E-2
10/19/2017  17:20:16.760055	2.497126E-1	1.573716E-2	1.391770E-2	-1.013632E+1	2.732853E-2	1.946206E-2	7.205661E-2	3.164702E-2
10/19/2017  17:20:16.761055	2.344606E-1	1.319332E-2	1.137250E-2	-1.012614E+1	1.202884E-2	2.200605E-2	7.459952E-2	3.419094E-2
10/19/2017  17:20:16.762055	1.988726E-1	1.828100E-2	1.646291E-2	-1.014905E+1	2.222863E-2	2.455003E-2	7.205661E-2	2.910311E-2
10/19/2017  17:20:16.763055	-9.854113E-2	1.319332E-2	2.664372E-2	-1.013378E+1	2.477858E-2	1.946206E-2	8.222822E-2	3.673486E-2
10/19/2017  17:20:16.764055	-2.027630E-1	1.064948E-2	1.900811E-2	-1.013378E+1	2.477858E-2	1.946206E-2	7.459952E-2	3.419094E-2
10/19/2017  17:20:16.765055	3.364275E-2	8.105642E-3	2.155331E-2	-1.013887E+1	1.457878E-2	1.691808E-2	7.205661E-2	3.927877E-2
10/19/2017  17:20:16.766055	-5.532717E-2	1.064948E-2	1.646291E-2	-1.012869E+1	2.477858E-2	9.286120E-3	6.951371E-2	3.164702E-2
10/19/2017  17:20:16.767055	7.177272E-2	2.082484E-2	1.137250E-2	-1.014651E+1	2.477858E-2	2.200605E-2	7.459952E-2	2.147136E-2
10/19/2017  17:20:16.768055	2.827585E-1	1.573716E-2	2.155331E-2	-1.015160E+1	1.712873E-2	2.455003E-2	8.477112E-2	2.655919E-2
10/19/2017  17:20:16.769055	2.547966E-1	1.319332E-2	2.664372E-2	-1.014142E+1	1.457878E-2	2.455003E-2	8.731403E-2	3.164702E-2
10/19/2017  17:20:16.770055	1.836206E-1	5.561801E-3	2.664372E-2	-1.011086E+1	1.967868E-2	1.946206E-2	7.968532E-2	3.164702E-2
10/19/2017  17:20:16.771055	2.217506E-1	1.573716E-2	8.827299E-3	-1.013632E+1	2.477858E-2	1.946206E-2	7.205661E-2	2.910311E-2
10/19/2017  17:20:16.772055	8.956670E-2	2.082484E-2	1.137250E-2	-1.012614E+1	2.987847E-2	3.218199E-2	7.459952E-2	2.401527E-2
10/19/2017  17:20:16.773055	1.076477E-2	2.845637E-2	1.646291E-2	-1.014651E+1	1.712873E-2	2.455003E-2	8.222822E-2	2.655919E-2
10/19/2017  17:20:16.774055	4.635274E-2	1.573716E-2	2.155331E-2	-1.016178E+1	1.712873E-2	1.437409E-2	7.968532E-2	3.164702E-2
10/19/2017  17:20:16.775055	5.397873E-2	8.105642E-3	2.155331E-2	-1.013632E+1	9.478889E-3	1.946206E-2	7.968532E-2	3.927877E-2
10/19/2017  17:20:16.776055	2.093276E-2	1.319332E-2	1.391770E-2	-1.012869E+1	2.477858E-2	1.183011E-2	6.697081E-2	4.182269E-2
10/19/2017  17:20:16.777055	-4.261718E-2	1.319332E-2	3.736893E-3	-1.014142E+1	1.967868E-2	9.286120E-3	6.951371E-2	3.164702E-2
10/19/2017  17:20:16.778055	-1.620911E-1	2.336868E-2	1.391770E-2	-1.014142E+1	2.477858E-2	2.709402E-2	6.188501E-2	2.401527E-2
10/19/2017  17:20:16.779055	-2.485190E-1	1.828100E-2	2.664372E-2	-1.013887E+1	2.477858E-2	3.218199E-2	8.222822E-2	3.164702E-2
10/19/2017  17:20:16.780055	-1.722591E-1	1.319332E-2	2.409852E-2	-1.013887E+1	1.457878E-2	1.946206E-2	8.222822E-2	3.927877E-2
10/19/2017  17:20:16.781055	-1.722591E-1	1.064948E-2	3.173413E-2	-1.013123E+1	1.712873E-2	1.946206E-2	7.459952E-2	3.673486E-2
10/19/2017  17:20:16.782055	-1.392131E-1	1.064948E-2	1.900811E-2	-1.013123E+1	2.222863E-2	1.946206E-2	7.714242E-2	3.419094E-2
10/19/2017  17:20:16.783055	-3.499119E-2	1.573716E-2	3.736893E-3	-1.014142E+1	3.497837E-2	1.183011E-2	7.459952E-2	3.419094E-2
10/19/2017  17:20:16.784055	-1.010831E-1	2.082484E-2	1.900811E-2	-1.014905E+1	1.967868E-2	2.455003E-2	7.714242E-2	2.655919E-2
10/19/2017  17:20:16.785055	-1.137931E-1	2.082484E-2	2.664372E-2	-1.014142E+1	2.477858E-2	3.472597E-2	8.222822E-2	2.401527E-2
10/19/2017  17:20:16.786055	-4.261718E-2	2.591253E-2	2.664372E-2	-1.013123E+1	1.712873E-2	1.946206E-2	8.222822E-2	3.164702E-2
10/19/2017  17:20:16.787055	3.364275E-2	1.573716E-2	2.155331E-2	-1.014142E+1	1.967868E-2	1.437409E-2	7.459952E-2	3.164702E-2
								
10/19/2017  17:20:16.788055	5.242483E-1	3.100021E-2	2.155331E-2	-1.012614E+1	2.732853E-2	1.691808E-2	7.714242E-2	3.164702E-2
10/19/2017  17:20:16.789055	2.471706E-1	1.573716E-2	1.391770E-2	-1.013887E+1	2.987847E-2	9.286120E-3	7.205661E-2	3.673486E-2
10/19/2017  17:20:16.790055	2.093276E-2	3.863173E-2	1.646291E-2	-1.015160E+1	2.477858E-2	2.455003E-2	6.951371E-2	2.910311E-2
10/19/2017  17:20:16.791055	1.810786E-1	2.082484E-2	2.918892E-2	-1.013887E+1	1.457878E-2	2.963800E-2	7.714242E-2	2.655919E-2
10/19/2017  17:20:16.792055	4.479884E-1	1.319332E-2	2.664372E-2	-1.012869E+1	9.478889E-3	1.946206E-2	8.222822E-2	2.401527E-2
10/19/2017  17:20:16.793055	2.471706E-1	1.064948E-2	2.155331E-2	-1.012869E+1	1.457878E-2	1.183011E-2	7.968532E-2	3.927877E-2
10/19/2017  17:20:16.794055	3.081785E-1	8.105642E-3	1.137250E-2	-1.012359E+1	4.517816E-2	1.437409E-2	7.205661E-2	4.436661E-2
10/19/2017  17:20:16.795055	2.573385E-1	1.064948E-2	1.137250E-2	-1.013887E+1	2.987847E-2	1.691808E-2	6.697081E-2	3.164702E-2
10/19/2017  17:20:16.796055	1.937886E-1	1.064948E-2	1.900811E-2	-1.013887E+1	9.478889E-3	1.691808E-2	6.697081E-2	1.892744E-2
10/19/2017  17:20:16.797055	1.734526E-1	2.082484E-2	1.900811E-2	-1.013632E+1	2.222863E-2	1.946206E-2	7.714242E-2	3.164702E-2
10/19/2017  17:20:16.798055	1.531166E-1	1.573716E-2	2.155331E-2	-1.013887E+1	9.478889E-3	1.691808E-2	8.731403E-2	4.182269E-2
10/19/2017  17:20:16.799055	1.226127E-1	1.319332E-2	1.137250E-2	-1.013123E+1	2.477858E-2	1.183011E-2	7.968532E-2	3.927877E-2
10/19/2017  17:20:16.800055	1.175287E-1	5.561801E-3	1.137250E-2	-1.013378E+1	2.987847E-2	1.691808E-2	7.205661E-2	4.182269E-2
10/19/2017  17:20:16.801055	9.210870E-2	1.319332E-2	1.391770E-2	-1.014905E+1	2.732853E-2	2.200605E-2	7.205661E-2	2.655919E-2
10/19/2017  17:20:16.802055	8.222774E-3	1.828100E-2	1.391770E-2	-1.014142E+1	2.477858E-2	2.709402E-2	8.222822E-2	2.401527E-2
10/19/2017  17:20:16.803055	-1.925950E-1	1.573716E-2	2.664372E-2	-1.011341E+1	1.712873E-2	1.437409E-2	8.477112E-2	3.927877E-2
10/19/2017  17:20:16.804055	-3.400309E-1	8.105642E-3	2.664372E-2	-1.013887E+1	2.477858E-2	1.437409E-2	7.205661E-2	3.673486E-2
10/19/2017  17:20:16.805055	-4.340848E-1	1.573716E-2	2.155331E-2	-1.014905E+1	2.477858E-2	1.437409E-2	6.951371E-2	3.164702E-2
10/19/2017  17:20:16.806055	-3.222369E-1	1.064948E-2	1.900811E-2	-1.013632E+1	2.732853E-2	2.455003E-2	6.951371E-2	2.655919E-2
10/19/2017  17:20:16.807055	-1.137931E-1	1.828100E-2	2.155331E-2	-1.013632E+1	2.477858E-2	2.963800E-2	6.951371E-2	2.910311E-2
10/19/2017  17:20:16.808055	5.397873E-2	1.064948E-2	2.155331E-2	-1.013378E+1	1.457878E-2	2.455003E-2	8.731403E-2	2.655919E-2
10/19/2017  17:20:16.809055	2.090406E-1	1.064948E-2	2.918892E-2	-1.012359E+1	1.712873E-2	1.946206E-2	7.459952E-2	3.673486E-2
10/19/2017  17:20:16.810055	1.759946E-1	8.105642E-3	8.827299E-3	-1.013378E+1	2.987847E-2	2.455003E-2	6.697081E-2	3.164702E-2
10/19/2017  17:20:16.811055	5.680776E-3	1.064948E-2	1.137250E-2	-1.013887E+1	2.477858E-2	1.691808E-2	6.697081E-2	3.164702E-2
10/19/2017  17:20:16.812055	-5.024317E-2	2.082484E-2	6.282096E-3	-1.014142E+1	1.457878E-2	2.200605E-2	7.714242E-2	3.419094E-2
10/19/2017  17:20:16.813055	-8.328914E-2	2.082484E-2	2.409852E-2	-1.012869E+1	1.712873E-2	1.946206E-2	8.477112E-2	2.910311E-2
10/19/2017  17:20:16.814055	-4.261718E-2	8.105642E-3	1.137250E-2	-1.012614E+1	1.967868E-2	9.286120E-3	7.714242E-2	3.164702E-2
10/19/2017  17:20:16.815055	4.937443E-1	5.561801E-3	1.391770E-2	-1.013123E+1	2.987847E-2	1.691808E-2	7.205661E-2	3.164702E-2
10/19/2017  17:20:16.816055	6.335542E-1	2.082484E-2	1.137250E-2	-1.014651E+1	2.732853E-2	1.946206E-2	7.205661E-2	2.655919E-2
10/19/2017  17:20:16.817055	3.132625E-1	8.105642E-3	1.900811E-2	-1.014142E+1	1.712873E-2	2.963800E-2	7.205661E-2	2.401527E-2
10/19/2017  17:20:16.818055	1.404067E-1	1.319332E-2	2.409852E-2	-1.013123E+1	1.712873E-2	2.200605E-2	8.477112E-2	2.655919E-2
10/19/2017  17:20:16.819055	1.759946E-1	2.082484E-2	1.900811E-2	-1.014396E+1	2.477858E-2	1.691808E-2	7.714242E-2	3.419094E-2
10/19/2017  17:20:16.820055	3.768124E-1	1.319332E-2	1.900811E-2	-1.013632E+1	2.222863E-2	9.286120E-3	7.205661E-2	2.401527E-2
								
10/19/2017  17:20:16.821055	1.149867E-1	5.561801E-3	1.137250E-2	-1.014651E+1	2.222863E-2	1.946206E-2	7.714242E-2	3.164702E-2
10/19/2017  17:20:16.822055	4.378204E-1	2.082484E-2	1.900811E-2	-1.013887E+1	2.477858E-2	2.709402E-2	7.968532E-2	2.910311E-2
10/19/2017  17:20:16.823055	1.099027E-1	5.561801E-3	2.409852E-2	-1.013123E+1	9.478889E-3	1.946206E-2	7.968532E-2	2.910311E-2
10/19/2017  17:20:16.824055	-2.408930E-1	8.105642E-3	2.155331E-2	-1.013123E+1	1.457878E-2	1.437409E-2	7.968532E-2	3.927877E-2
10/19/2017  17:20:16.825055	-8.583114E-2	8.105642E-3	2.155331E-2	-1.013887E+1	2.987847E-2	2.200605E-2	7.459952E-2	2.910311E-2
10/19/2017  17:20:16.826055	1.076477E-2	1.064948E-2	1.391770E-2	-1.013378E+1	2.222863E-2	2.455003E-2	7.459952E-2	2.655919E-2
10/19/2017  17:20:16.827055	5.906273E-2	1.573716E-2	1.646291E-2	-1.013632E+1	6.928941E-3	1.946206E-2	7.205661E-2	3.673486E-2
10/19/2017  17:20:16.828055	1.124447E-1	1.828100E-2	2.664372E-2	-1.013123E+1	1.202884E-2	2.200605E-2	8.731403E-2	3.673486E-2
10/19/2017  17:20:16.829055	8.194071E-2	5.561801E-3	1.646291E-2	-1.013378E+1	1.967868E-2	1.183011E-2	7.968532E-2	3.673486E-2
10/19/2017  17:20:16.830055	6.923072E-2	1.319332E-2	1.137250E-2	-1.014142E+1	2.477858E-2	1.946206E-2	7.459952E-2	3.164702E-2
10/19/2017  17:20:16.831055	9.210870E-2	1.573716E-2	1.646291E-2	-1.014396E+1	1.967868E-2	1.946206E-2	7.968532E-2	2.401527E-2
10/19/2017  17:20:16.832055	1.048187E-1	2.082484E-2	2.409852E-2	-1.013632E+1	1.712873E-2	3.218199E-2	8.222822E-2	2.910311E-2
10/19/2017  17:20:16.833055	-1.973920E-2	1.064948E-2	2.155331E-2	-1.013632E+1	2.222863E-2	1.946206E-2	7.459952E-2	2.147136E-2
10/19/2017  17:20:16.834055	-9.599913E-2	1.064948E-2	2.155331E-2	-1.012105E+1	1.967868E-2	1.183011E-2	8.222822E-2	3.164702E-2
10/19/2017  17:20:16.835055	-2.078470E-1	1.828100E-2	1.646291E-2	-1.013632E+1	2.222863E-2	2.200605E-2	7.968532E-2	3.164702E-2
10/19/2017  17:20:16.836055	-5.891467E-1	2.082484E-2	1.646291E-2	-1.014651E+1	2.222863E-2	1.946206E-2	6.951371E-2	3.164702E-2
10/19/2017  17:20:16.837055	-2.332670E-1	5.561801E-3	2.155331E-2	-1.013632E+1	1.457878E-2	2.455003E-2	7.968532E-2	3.419094E-2
10/19/2017  17:20:16.838055	-9.091514E-2	1.064948E-2	1.391770E-2	-1.012869E+1	2.732853E-2	1.946206E-2	8.731403E-2	3.164702E-2
10/19/2017  17:20:16.839055	6.462642E-1	8.105642E-3	6.282096E-3	-1.013378E+1	2.477858E-2	1.946206E-2	7.714242E-2	3.419094E-2
10/19/2017  17:20:16.840055	6.106762E-1	2.591253E-2	1.900811E-2	-1.014396E+1	2.477858E-2	2.709402E-2	8.731403E-2	2.910311E-2
10/19/2017  17:20:16.841055	3.666444E-1	1.828100E-2	3.427933E-2	-1.014142E+1	2.222863E-2	1.437409E-2	7.714242E-2	3.673486E-2
10/19/2017  17:20:16.842055	-1.945217E-3	1.064948E-2	1.900811E-2	-1.013632E+1	2.222863E-2	2.455003E-2	8.731403E-2	3.927877E-2
10/19/2017  17:20:16.843055	3.872675E-2	8.105642E-3	1.137250E-2	-1.013123E+1	2.987847E-2	1.437409E-2	7.459952E-2	3.673486E-2
10/19/2017  17:20:16.844055	2.601676E-2	2.082484E-2	1.137250E-2	-1.012869E+1	2.732853E-2	1.946206E-2	7.205661E-2	3.164702E-2
10/19/2017  17:20:16.845055	2.855876E-2	2.082484E-2	8.827299E-3	-1.014651E+1	3.497837E-2	1.437409E-2	6.697081E-2	2.147136E-2
10/19/2017  17:20:16.846055	5.680776E-3	1.064948E-2	1.900811E-2	-1.013632E+1	1.712873E-2	2.709402E-2	7.714242E-2	3.164702E-2
10/19/2017  17:20:16.847055	1.149867E-1	1.319332E-2	2.664372E-2	-1.013378E+1	1.712873E-2	3.218199E-2	7.205661E-2	3.419094E-2
10/19/2017  17:20:16.848055	4.381074E-2	1.573716E-2	1.391770E-2	-1.014142E+1	1.712873E-2	1.946206E-2	7.459952E-2	3.419094E-2
10/19/2017  17:20:16.849055	1.785366E-1	1.319332E-2	1.137250E-2	-1.013632E+1	2.477858E-2	2.709402E-2	7.205661E-2	2.910311E-2
10/19/2017  17:20:16.850055	1.683686E-1	4.117557E-2	1.391770E-2	-1.013887E+1	2.477858E-2	2.709402E-2	7.714242E-2	2.147136E-2
10/19/2017  17:20:16.851055	8.448270E-2	2.082484E-2	2.409852E-2	-1.014396E+1	1.457878E-2	2.455003E-2	8.222822E-2	3.164702E-2
10/19/2017  17:20:16.852055	2.855876E-2	4.741205E-4	2.664372E-2	-1.014651E+1	4.378993E-3	1.691808E-2	7.714242E-2	4.182269E-2
10/19/2017  17:20:16.853055	7.685671E-2	1.064948E-2	1.646291E-2	-1.013123E+1	2.732853E-2	1.437409E-2	6.951371E-2	4.182269E-2
								
10/19/2017  17:20:16.854055	1.099027E-1	1.064948E-2	1.391770E-2	-1.014905E+1	4.262821E-2	1.946206E-2	7.459952E-2	2.147136E-2
10/19/2017  17:20:16.855055	-1.290451E-1	2.082484E-2	1.391770E-2	-1.014905E+1	2.222863E-2	2.455003E-2	7.459952E-2	2.910311E-2
10/19/2017  17:20:16.856055	-3.959549E-1	1.828100E-2	2.409852E-2	-1.013887E+1	2.477858E-2	1.946206E-2	8.731403E-2	3.673486E-2
10/19/2017  17:20:16.857055	-4.696728E-1	1.064948E-2	1.900811E-2	-1.014142E+1	2.222863E-2	1.183011E-2	7.459952E-2	4.182269E-2
10/19/2017  17:20:16.858055	-4.493368E-1	1.064948E-2	1.646291E-2	-1.013632E+1	9.478889E-3	1.691808E-2	6.442791E-2	4.182269E-2
10/19/2017  17:20:16.859055	5.397873E-2	1.319332E-2	2.409852E-2	-1.012869E+1	1.967868E-2	1.946206E-2	7.714242E-2	3.419094E-2
10/19/2017  17:20:16.860055	6.208442E-1	2.082484E-2	1.900811E-2	-1.013632E+1	2.222863E-2	2.709402E-2	7.968532E-2	2.147136E-2
10/19/2017  17:20:16.861055	4.124004E-1	1.573716E-2	1.391770E-2	-1.014905E+1	1.712873E-2	1.691808E-2	8.222822E-2	3.164702E-2
10/19/2017  17:20:16.862055	1.759946E-1	1.064948E-2	2.664372E-2	-1.012869E+1	1.712873E-2	1.691808E-2	8.222822E-2	5.199836E-2
10/19/2017  17:20:16.863055	3.056365E-1	1.064948E-2	2.155331E-2	-1.013123E+1	2.222863E-2	1.691808E-2	7.968532E-2	3.164702E-2
10/19/2017  17:20:16.864055	1.759946E-1	1.064948E-2	2.155331E-2	-1.013632E+1	1.967868E-2	1.946206E-2	7.968532E-2	2.147136E-2
10/19/2017  17:20:16.865055	1.099027E-1	1.319332E-2	1.900811E-2	-1.012869E+1	2.222863E-2	2.455003E-2	8.222822E-2	3.164702E-2
10/19/2017  17:20:16.866055	1.251547E-1	1.828100E-2	1.900811E-2	-1.013887E+1	1.712873E-2	1.437409E-2	8.477112E-2	3.164702E-2
10/19/2017  17:20:16.867055	1.861626E-1	8.105642E-3	1.646291E-2	-1.014905E+1	2.477858E-2	6.742135E-3	7.459952E-2	3.927877E-2
10/19/2017  17:20:16.868055	2.522546E-1	4.741205E-4	2.155331E-2	-1.013378E+1	2.987847E-2	1.691808E-2	7.968532E-2	3.164702E-2
10/19/2017  17:20:16.869055	1.683686E-1	1.828100E-2	1.391770E-2	-1.014396E+1	2.222863E-2	2.200605E-2	8.222822E-2	3.164702E-2
10/19/2017  17:20:16.870055	7.685671E-2	1.573716E-2	6.282096E-3	-1.013887E+1	1.457878E-2	2.455003E-2	7.459952E-2	2.910311E-2
10/19/2017  17:20:16.871055	-5.024317E-2	1.573716E-2	1.900811E-2	-1.013887E+1	1.712873E-2	2.455003E-2	8.222822E-2	3.673486E-2
10/19/2017  17:20:16.872055	-1.265031E-1	1.064948E-2	1.137250E-2	-1.013632E+1	2.477858E-2	2.709402E-2	7.968532E-2	3.927877E-2
10/19/2017  17:20:16.873055	-9.345713E-2	5.561801E-3	1.900811E-2	-1.013887E+1	1.967868E-2	1.437409E-2	6.951371E-2	3.927877E-2
10/19/2017  17:20:16.874055	-1.544651E-1	1.573716E-2	3.173413E-2	-1.013378E+1	2.732853E-2	2.963800E-2	7.205661E-2	3.419094E-2
10/19/2017  17:20:16.875055	-2.790230E-1	1.828100E-2	1.137250E-2	-1.013632E+1	3.242842E-2	2.963800E-2	7.205661E-2	2.401527E-2
10/19/2017  17:20:16.876055	-4.747568E-1	2.591253E-2	1.391770E-2	-1.014142E+1	9.478889E-3	2.709402E-2	8.222822E-2	2.910311E-2
10/19/2017  17:20:16.877055	-8.916444E-1	5.561801E-3	2.409852E-2	-1.014396E+1	9.478889E-3	1.437409E-2	7.714242E-2	4.182269E-2
10/19/2017  17:20:16.878055	-1.072126E+0	1.064948E-2	1.137250E-2	-1.013123E+1	2.732853E-2	2.455003E-2	6.697081E-2	4.436661E-2
10/19/2017  17:20:16.879055	-2.536030E-1	2.336868E-2	1.391770E-2	-1.013887E+1	2.732853E-2	1.946206E-2	6.951371E-2	3.164702E-2
10/19/2017  17:20:16.880055	6.055922E-1	2.082484E-2	1.900811E-2	-1.014651E+1	2.222863E-2	3.218199E-2	7.459952E-2	3.673486E-2
10/19/2017  17:20:16.881055	1.098740E+0	2.845637E-2	2.409852E-2	-1.013632E+1	1.712873E-2	1.946206E-2	8.477112E-2	3.419094E-2
10/19/2017  17:20:16.882055	7.148981E-1	1.064948E-2	1.137250E-2	-1.013123E+1	2.732853E-2	6.742135E-3	6.951371E-2	4.436661E-2
10/19/2017  17:20:16.883055	5.700043E-1	3.017961E-3	1.391770E-2	-1.014905E+1	2.222863E-2	2.709402E-2	6.697081E-2	2.910311E-2
10/19/2017  17:20:16.884055	3.895224E-1	2.082484E-2	1.900811E-2	-1.013887E+1	1.457878E-2	2.963800E-2	8.222822E-2	2.401527E-2
10/19/2017  17:20:16.885055	6.310122E-1	1.573716E-2	2.409852E-2	-1.012869E+1	9.478889E-3	2.200605E-2	8.477112E-2	3.164702E-2
10/19/2017  17:20:16.886055	7.860741E-1	8.105642E-3	1.391770E-2	-1.014142E+1	2.222863E-2	1.437409E-2	7.459952E-2	3.419094E-2
								
10/19/2017  17:20:16.887055	3.971484E-1	2.082484E-2	1.137250E-2	-1.013378E+1	3.752832E-2	1.946206E-2	7.205661E-2	3.927877E-2
10/19/2017  17:20:16.888055	6.284702E-1	2.082484E-2	1.646291E-2	-1.014142E+1	2.222863E-2	2.455003E-2	6.951371E-2	2.910311E-2
10/19/2017  17:20:16.889055	4.708664E-1	2.082484E-2	2.664372E-2	-1.014396E+1	1.712873E-2	2.709402E-2	7.968532E-2	4.182269E-2
10/19/2017  17:20:16.890055	3.539345E-1	8.105642E-3	2.664372E-2	-1.013378E+1	1.457878E-2	1.691808E-2	8.477112E-2	4.182269E-2
10/19/2017  17:20:16.891055	2.776745E-1	1.319332E-2	1.646291E-2	-1.012869E+1	2.222863E-2	1.946206E-2	6.951371E-2	3.673486E-2
10/19/2017  17:20:16.892055	-7.820515E-2	1.319332E-2	8.827299E-3	-1.014651E+1	2.732853E-2	2.709402E-2	6.951371E-2	2.655919E-2
10/19/2017  17:20:16.893055	-3.146109E-1	2.336868E-2	2.155331E-2	-1.014142E+1	2.477858E-2	2.709402E-2	7.714242E-2	4.182269E-2
10/19/2017  17:20:16.894055	-3.552829E-1	1.319332E-2	3.173413E-2	-1.012614E+1	1.457878E-2	1.946206E-2	8.222822E-2	3.673486E-2
10/19/2017  17:20:16.895055	-3.171529E-1	5.561801E-3	1.900811E-2	-1.013123E+1	2.477858E-2	1.437409E-2	7.714242E-2	3.927877E-2
10/19/2017  17:20:16.896055	-9.571210E-3	1.828100E-2	1.391770E-2	-1.012869E+1	2.477858E-2	2.455003E-2	7.459952E-2	3.419094E-2
10/19/2017  17:20:16.897055	4.657824E-1	2.082484E-2	1.137250E-2	-1.013887E+1	1.712873E-2	1.946206E-2	7.459952E-2	2.401527E-2
10/19/2017  17:20:16.898055	7.428601E-1	1.573716E-2	2.664372E-2	-1.013887E+1	1.457878E-2	1.183011E-2	8.731403E-2	3.164702E-2
10/19/2017  17:20:16.899055	4.454464E-1	1.064948E-2	2.664372E-2	-1.013123E+1	2.477858E-2	1.691808E-2	7.968532E-2	2.910311E-2
10/19/2017  17:20:16.900055	3.818964E-1	1.064948E-2	1.137250E-2	-1.016433E+1	2.477858E-2	2.200605E-2	6.697081E-2	3.164702E-2
10/19/2017  17:20:16.901055	3.818964E-1	1.319332E-2	1.137250E-2	-1.013887E+1	1.712873E-2	2.455003E-2	7.459952E-2	2.655919E-2
10/19/2017  17:20:16.902055	4.635274E-2	1.828100E-2	2.664372E-2	-1.013632E+1	1.712873E-2	1.946206E-2	8.731403E-2	3.164702E-2
10/19/2017  17:20:16.903055	-1.875110E-1	2.082484E-2	3.173413E-2	-1.013378E+1	2.987847E-2	2.200605E-2	7.459952E-2	4.182269E-2
10/19/2017  17:20:16.904055	-3.501989E-1	1.828100E-2	1.137250E-2	-1.014142E+1	2.477858E-2	1.946206E-2	6.697081E-2	2.655919E-2
10/19/2017  17:20:16.905055	-4.544208E-1	1.828100E-2	1.391770E-2	-1.013887E+1	1.712873E-2	2.709402E-2	7.459952E-2	3.164702E-2
10/19/2017  17:20:16.906055	-6.120247E-1	1.319332E-2	2.155331E-2	-1.013632E+1	1.457878E-2	2.455003E-2	8.222822E-2	2.655919E-2
10/19/2017  17:20:16.907055	-4.239168E-1	1.064948E-2	6.282096E-3	-1.012869E+1	1.967868E-2	4.198150E-3	7.714242E-2	3.164702E-2
10/19/2017  17:20:16.908055	-5.332227E-1	2.082484E-2	1.137250E-2	-1.013887E+1	2.477858E-2	1.946206E-2	6.951371E-2	3.419094E-2
10/19/2017  17:20:16.909055	-4.137488E-1	2.336868E-2	1.900811E-2	-1.014396E+1	2.732853E-2	4.235793E-2	7.205661E-2	2.910311E-2
10/19/2017  17:20:16.910055	-7.312115E-2	1.064948E-2	2.409852E-2	-1.013632E+1	1.202884E-2	2.200605E-2	8.222822E-2	2.910311E-2
10/19/2017  17:20:16.911055	2.217506E-1	1.064948E-2	1.900811E-2	-1.012614E+1	2.477858E-2	9.286120E-3	7.459952E-2	3.164702E-2
10/19/2017  17:20:16.912055	4.174844E-1	3.354405E-2	1.137250E-2	-1.012869E+1	4.007827E-2	1.946206E-2	7.205661E-2	3.164702E-2
10/19/2017  17:20:16.913055	3.869804E-1	1.064948E-2	1.391770E-2	-1.012869E+1	2.222863E-2	2.200605E-2	7.459952E-2	1.892744E-2
10/19/2017  17:20:16.914055	3.412245E-1	2.845637E-2	1.646291E-2	-1.014651E+1	1.457878E-2	1.691808E-2	7.205661E-2	3.164702E-2
10/19/2017  17:20:16.915055	3.310565E-1	1.319332E-2	1.900811E-2	-1.013123E+1	2.477858E-2	1.946206E-2	7.968532E-2	3.164702E-2
10/19/2017  17:20:16.916055	2.522546E-1	4.741205E-4	1.900811E-2	-1.012614E+1	1.457878E-2	1.437409E-2	7.714242E-2	3.164702E-2
10/19/2017  17:20:16.917055	1.378647E-1	1.828100E-2	8.827299E-3	-1.013887E+1	2.987847E-2	1.946206E-2	6.951371E-2	3.673486E-2
10/19/2017  17:20:16.918055	2.601676E-2	2.336868E-2	1.391770E-2	-1.013887E+1	2.987847E-2	2.455003E-2	6.697081E-2	2.910311E-2
10/19/2017  17:20:16.919055	-8.328914E-2	1.573716E-2	2.155331E-2	-1.014142E+1	2.222863E-2	1.691808E-2	7.714242E-2	3.419094E-2
								
10/19/2017  17:20:16.920055	-2.841070E-1	1.064948E-2	2.155331E-2	-1.013632E+1	1.712873E-2	1.946206E-2	7.459952E-2	2.147136E-2
10/19/2017  17:20:16.921055	-4.162908E-1	8.105642E-3	2.155331E-2	-1.013378E+1	1.967868E-2	1.691808E-2	7.714242E-2	3.164702E-2
10/19/2017  17:20:16.922055	-2.866490E-1	1.064948E-2	8.827299E-3	-1.013887E+1	2.987847E-2	1.946206E-2	6.697081E-2	2.655919E-2
10/19/2017  17:20:16.923055	-5.532717E-2	2.082484E-2	1.646291E-2	-1.014396E+1	2.987847E-2	2.709402E-2	7.968532E-2	2.655919E-2
10/19/2017  17:20:16.924055	1.709106E-1	1.573716E-2	2.409852E-2	-1.014396E+1	1.457878E-2	1.946206E-2	8.222822E-2	4.182269E-2
10/19/2017  17:20:16.925055	3.005525E-1	8.105642E-3	2.664372E-2	-1.013887E+1	1.457878E-2	1.691808E-2	8.477112E-2	4.182269E-2
10/19/2017  17:20:16.926055	2.242926E-1	1.319332E-2	1.137250E-2	-1.012869E+1	1.967868E-2	2.200605E-2	7.714242E-2	3.673486E-2
10/19/2017  17:20:16.927055	7.431471E-2	1.319332E-2	1.391770E-2	-1.012614E+1	2.732853E-2	2.455003E-2	7.714242E-2	2.910311E-2
10/19/2017  17:20:16.928055	-2.228120E-2	1.828100E-2	1.900811E-2	-1.013887E+1	2.987847E-2	2.455003E-2	6.951371E-2	2.655919E-2
10/19/2017  17:20:16.929055	-1.315871E-1	1.319332E-2	2.409852E-2	-1.014651E+1	2.222863E-2	1.946206E-2	8.222822E-2	2.655919E-2
10/19/2017  17:20:16.930055	-5.510167E-1	1.828100E-2	3.173413E-2	-1.013632E+1	1.967868E-2	2.200605E-2	8.477112E-2	3.419094E-2
10/19/2017  17:20:16.931055	-6.450706E-1	1.319332E-2	1.900811E-2	-1.013887E+1	1.967868E-2	1.946206E-2	6.697081E-2	3.164702E-2
10/19/2017  17:20:16.932055	-2.230990E-1	8.105642E-3	1.137250E-2	-1.013887E+1	1.712873E-2	1.183011E-2	7.968532E-2	3.164702E-2
10/19/2017  17:20:16.933055	-4.213748E-1	1.064948E-2	1.137250E-2	-1.013632E+1	2.732853E-2	1.946206E-2	8.731403E-2	3.164702E-2
10/19/2017  17:20:16.934055	-1.875110E-1	2.591253E-2	2.918892E-2	-1.014142E+1	3.242842E-2	2.200605E-2	6.951371E-2	2.910311E-2
10/19/2017  17:20:16.935055	1.241092E+0	1.319332E-2	2.155331E-2	-1.015160E+1	1.712873E-2	2.455003E-2	6.697081E-2	2.655919E-2
10/19/2017  17:20:16.936055	3.971484E-1	1.828100E-2	2.409852E-2	-1.013632E+1	1.457878E-2	2.455003E-2	8.222822E-2	3.419094E-2
10/19/2017  17:20:16.937055	3.920644E-1	2.082484E-2	1.646291E-2	-1.012869E+1	2.477858E-2	2.200605E-2	7.714242E-2	3.419094E-2
10/19/2017  17:20:16.938055	4.962863E-1	1.064948E-2	1.646291E-2	-1.013378E+1	1.712873E-2	9.286120E-3	7.459952E-2	3.673486E-2
10/19/2017  17:20:16.939055	5.039123E-1	1.064948E-2	8.827299E-3	-1.013378E+1	3.497837E-2	1.691808E-2	7.205661E-2	3.164702E-2
10/19/2017  17:20:16.940055	3.717284E-1	1.573716E-2	1.137250E-2	-1.013378E+1	2.987847E-2	1.691808E-2	6.951371E-2	2.910311E-2
10/19/2017  17:20:16.941055	1.276967E-1	1.319332E-2	1.900811E-2	-1.014905E+1	1.967868E-2	2.455003E-2	7.714242E-2	2.910311E-2
10/19/2017  17:20:16.942055	1.180084E+0	1.573716E-2	1.900811E-2	-1.013378E+1	2.477858E-2	3.981394E-2	7.714242E-2	3.164702E-2
10/19/2017  17:20:16.943055	1.230924E+0	3.100021E-2	2.409852E-2	-1.012869E+1	1.712873E-2	1.946206E-2	8.731403E-2	3.419094E-2
10/19/2017  17:20:16.944055	8.928380E-1	1.064948E-2	1.646291E-2	-1.013887E+1	1.967868E-2	2.200605E-2	7.714242E-2	3.164702E-2
10/19/2017  17:20:16.945055	-2.482320E-2	2.082484E-2	1.646291E-2	-1.014142E+1	1.202884E-2	1.437409E-2	7.205661E-2	3.164702E-2
10/19/2017  17:20:16.946055	-2.612290E-1	1.064948E-2	1.646291E-2	-1.013887E+1	2.732853E-2	1.946206E-2	6.951371E-2	3.164702E-2
10/19/2017  17:20:16.947055	-8.230105E-1	5.561801E-3	1.900811E-2	-1.015415E+1	1.457878E-2	2.963800E-2	7.714242E-2	2.401527E-2
10/19/2017  17:20:16.948055	-1.417551E-1	1.573716E-2	1.646291E-2	-1.013632E+1	2.477858E-2	2.200605E-2	7.968532E-2	2.910311E-2
10/19/2017  17:20:16.949055	1.113992E+0	1.319332E-2	1.900811E-2	-1.014142E+1	1.202884E-2	1.691808E-2	7.459952E-2	3.164702E-2
10/19/2017  17:20:16.950055	1.363108E+0	5.561801E-3	3.173413E-2	-1.013632E+1	1.712873E-2	9.286120E-3	7.968532E-2	3.927877E-2
10/19/2017  17:20:16.951055	1.035190E+0	8.105642E-3	1.646291E-2	-1.012869E+1	6.928941E-3	1.691808E-2	7.205661E-2	3.927877E-2
10/19/2017  17:20:16.952055	1.226127E-1	1.319332E-2	1.646291E-2	-1.012869E+1	2.987847E-2	2.709402E-2	7.205661E-2	3.419094E-2
								
10/19/2017  17:20:16.953055	3.335985E-1	1.828100E-2	1.391770E-2	-1.014651E+1	2.477858E-2	2.455003E-2	7.714242E-2	2.147136E-2
10/19/2017  17:20:16.954055	5.903402E-1	2.082484E-2	2.409852E-2	-1.015160E+1	1.967868E-2	2.200605E-2	7.205661E-2	2.655919E-2
10/19/2017  17:20:16.955055	-1.570071E-1	1.573716E-2	2.664372E-2	-1.013378E+1	1.967868E-2	2.455003E-2	8.222822E-2	4.691052E-2
10/19/2017  17:20:16.956055	-1.026370E+0	1.064948E-2	1.900811E-2	-1.013887E+1	2.477858E-2	2.455003E-2	7.205661E-2	3.164702E-2
10/19/2017  17:20:16.957055	-1.344120E+0	8.105642E-3	2.155331E-2	-1.013887E+1	2.222863E-2	1.183011E-2	7.714242E-2	5.199836E-2
10/19/2017  17:20:16.958055	-5.433907E-1	1.319332E-2	1.646291E-2	-1.011850E+1	2.987847E-2	2.200605E-2	7.714242E-2	3.164702E-2
10/19/2017  17:20:16.959055	8.699600E-1	2.082484E-2	1.391770E-2	-1.014651E+1	3.497837E-2	2.709402E-2	7.205661E-2	2.655919E-2
10/19/2017  17:20:16.960055	2.435831E+0	1.828100E-2	3.173413E-2	-1.015415E+1	1.712873E-2	2.200605E-2	8.731403E-2	3.164702E-2
10/19/2017  17:20:16.961055	1.370734E+0	1.064948E-2	3.173413E-2	-1.013378E+1	1.457878E-2	2.709402E-2	8.222822E-2	3.419094E-2
10/19/2017  17:20:16.962055	-7.312115E-2	8.105642E-3	1.646291E-2	-1.013887E+1	2.222863E-2	1.946206E-2	7.968532E-2	3.673486E-2
10/19/2017  17:20:16.963055	6.462642E-1	5.561801E-3	1.137250E-2	-1.014142E+1	1.712873E-2	1.946206E-2	7.459952E-2	3.164702E-2
10/19/2017  17:20:16.964055	-4.261718E-2	1.828100E-2	1.137250E-2	-1.014142E+1	2.987847E-2	2.455003E-2	7.205661E-2	3.164702E-2
10/19/2017  17:20:16.965055	-1.417838E+0	2.082484E-2	1.137250E-2	-1.014905E+1	2.477858E-2	2.200605E-2	7.459952E-2	2.655919E-2
10/19/2017  17:20:16.966055	-1.588152E+0	1.319332E-2	2.409852E-2	-1.014905E+1	1.457878E-2	1.946206E-2	7.459952E-2	3.419094E-2
10/19/2017  17:20:16.967055	-1.372082E+0	1.319332E-2	1.646291E-2	-1.013632E+1	6.928941E-3	2.455003E-2	7.968532E-2	4.182269E-2
10/19/2017  17:20:16.968055	-1.270402E+0	1.573716E-2	1.646291E-2	-1.014142E+1	2.222863E-2	1.946206E-2	7.714242E-2	3.164702E-2
10/19/2017  17:20:16.969055	-7.314986E-1	1.828100E-2	1.137250E-2	-1.013887E+1	1.457878E-2	1.183011E-2	7.205661E-2	2.655919E-2
10/19/2017  17:20:16.970055	-3.756189E-1	2.336868E-2	1.900811E-2	-1.014396E+1	2.732853E-2	2.963800E-2	7.714242E-2	3.164702E-2
10/19/2017  17:20:16.971055	-3.857869E-1	2.336868E-2	1.900811E-2	-1.013887E+1	2.222863E-2	3.218199E-2	7.714242E-2	3.927877E-2
10/19/2017  17:20:16.972055	-3.273209E-1	8.105642E-3	2.155331E-2	-1.013887E+1	1.202884E-2	1.946206E-2	7.459952E-2	3.164702E-2
10/19/2017  17:20:16.973055	-2.713970E-1	5.561801E-3	2.155331E-2	-1.013123E+1	2.477858E-2	2.709402E-2	7.459952E-2	3.673486E-2
10/19/2017  17:20:16.974055	-2.230990E-1	1.064948E-2	1.137250E-2	-1.013378E+1	2.222863E-2	1.946206E-2	7.205661E-2	3.164702E-2
10/19/2017  17:20:16.975055	-1.493811E-1	1.573716E-2	1.137250E-2	-1.014142E+1	2.477858E-2	2.455003E-2	7.205661E-2	2.147136E-2
10/19/2017  17:20:16.976055	-7.566315E-2	2.591253E-2	1.900811E-2	-1.014651E+1	2.732853E-2	2.709402E-2	7.714242E-2	2.910311E-2
10/19/2017  17:20:16.977055	-4.770118E-2	2.082484E-2	2.155331E-2	-1.013887E+1	2.222863E-2	1.946206E-2	7.714242E-2	4.182269E-2
10/19/2017  17:20:16.978055	-4.770118E-2	1.319332E-2	2.409852E-2	-1.013632E+1	6.928941E-3	1.691808E-2	8.222822E-2	2.910311E-2
10/19/2017  17:20:16.979055	-1.036251E-1	5.561801E-3	1.900811E-2	-1.013123E+1	1.712873E-2	1.691808E-2	8.222822E-2	3.164702E-2
10/19/2017  17:20:16.980055	-1.875110E-1	1.064948E-2	2.155331E-2	-1.012359E+1	3.497837E-2	1.437409E-2	7.968532E-2	2.910311E-2
10/19/2017  17:20:16.981055	-3.247789E-1	1.573716E-2	1.137250E-2	-1.014651E+1	2.477858E-2	1.691808E-2	6.697081E-2	3.164702E-2
10/19/2017  17:20:16.982055	-3.044429E-1	2.082484E-2	1.137250E-2	-1.014651E+1	1.457878E-2	2.455003E-2	6.442791E-2	3.673486E-2
10/19/2017  17:20:16.983055	-3.374889E-1	2.336868E-2	2.664372E-2	-1.012869E+1	2.222863E-2	2.455003E-2	8.222822E-2	2.910311E-2
10/19/2017  17:20:16.984055	-1.087091E-1	1.064948E-2	2.155331E-2	-1.013632E+1	1.967868E-2	1.691808E-2	8.477112E-2	2.401527E-2
10/19/2017  17:20:16.985055	7.939871E-2	1.064948E-2	1.137250E-2	-1.014396E+1	2.477858E-2	1.691808E-2	7.968532E-2	3.927877E-2
								
10/19/2017  17:20:16.986055	-2.866490E-1	1.573716E-2	2.155331E-2	-1.014142E+1	2.222863E-2	1.946206E-2	7.459952E-2	4.436661E-2
10/19/2017  17:20:16.987055	-2.129310E-1	1.573716E-2	2.155331E-2	-1.012105E+1	2.732853E-2	1.946206E-2	7.205661E-2	3.419094E-2
10/19/2017  17:20:16.988055	3.666444E-1	1.828100E-2	1.646291E-2	-1.014142E+1	1.967868E-2	2.963800E-2	7.459952E-2	4.436661E-2
10/19/2017  17:20:16.989055	1.228382E+0	1.319332E-2	2.409852E-2	-1.012105E+1	1.457878E-2	2.455003E-2	8.222822E-2	3.673486E-2
10/19/2017  17:20:16.990055	1.269054E+0	8.105642E-3	2.664372E-2	-1.012869E+1	1.712873E-2	1.946206E-2	7.459952E-2	2.655919E-2
10/19/2017  17:20:16.991055	6.005082E-1	1.573716E-2	1.900811E-2	-1.014905E+1	1.967868E-2	9.286120E-3	7.205661E-2	3.673486E-2
10/19/2017  17:20:16.992055	-3.984969E-1	1.064948E-2	2.155331E-2	-1.013887E+1	2.987847E-2	2.455003E-2	6.951371E-2	3.419094E-2
10/19/2017  17:20:16.993055	3.361405E-1	1.828100E-2	1.900811E-2	-1.014651E+1	2.222863E-2	3.218199E-2	6.697081E-2	2.655919E-2
10/19/2017  17:20:16.994055	1.129244E+0	1.828100E-2	2.409852E-2	-1.014651E+1	1.712873E-2	2.200605E-2	8.477112E-2	2.655919E-2
10/19/2017  17:20:16.995055	1.167374E+0	1.828100E-2	2.664372E-2	-1.013632E+1	1.967868E-2	1.946206E-2	8.731403E-2	3.673486E-2
10/19/2017  17:20:16.996055	-1.748011E-1	8.105642E-3	3.427933E-2	-1.013378E+1	2.222863E-2	1.437409E-2	8.222822E-2	3.927877E-2
10/19/2017  17:20:16.997055	-1.402586E+0	5.561801E-3	1.900811E-2	-1.013632E+1	2.987847E-2	1.437409E-2	7.968532E-2	3.927877E-2
10/19/2017  17:20:16.998055	-2.818479E+0	1.064948E-2	2.918892E-2	-1.014396E+1	2.732853E-2	2.455003E-2	7.205661E-2	2.910311E-2
10/19/2017  17:20:16.999055	-1.855062E+0	1.573716E-2	2.155331E-2	-1.015160E+1	1.457878E-2	2.455003E-2	7.205661E-2	2.910311E-2
10/19/2017  17:20:17.000055	-2.185521E+0	1.573716E-2	1.646291E-2	-1.014142E+1	9.478889E-3	1.946206E-2	8.222822E-2	3.164702E-2
10/19/2017  17:20:17.001055	-8.306365E-1	1.828100E-2	1.900811E-2	-1.013123E+1	2.222863E-2	1.437409E-2	7.714242E-2	3.673486E-2
10/19/2017  17:20:17.002055	-2.482320E-2	8.105642E-3	1.137250E-2	-1.013378E+1	2.732853E-2	2.709402E-2	6.951371E-2	4.436661E-2
10/19/2017  17:20:17.003055	-3.123518E+0	1.573716E-2	1.646291E-2	-1.015160E+1	2.222863E-2	2.709402E-2	6.697081E-2	2.910311E-2
10/19/2017  17:20:17.004055	-5.891467E-1	2.082484E-2	1.900811E-2	-1.014142E+1	2.222863E-2	1.946206E-2	7.459952E-2	2.910311E-2
10/19/2017  17:20:17.005055	3.767837E+0	1.828100E-2	2.155331E-2	-1.014142E+1	1.457878E-2	1.691808E-2	8.222822E-2	3.164702E-2
10/19/2017  17:20:17.006055	4.408421E+0	1.064948E-2	2.409852E-2	-1.011850E+1	1.712873E-2	1.691808E-2	8.477112E-2	3.419094E-2
10/19/2017  17:20:17.007055	1.164832E+0	2.082484E-2	1.137250E-2	-1.013378E+1	3.497837E-2	1.437409E-2	7.714242E-2	4.182269E-2
10/19/2017  17:20:17.008055	-1.260234E+0	1.319332E-2	1.391770E-2	-1.013632E+1	2.477858E-2	2.200605E-2	7.714242E-2	3.419094E-2
10/19/2017  17:20:17.009055	-2.554111E+0	5.561801E-3	1.646291E-2	-1.014905E+1	1.202884E-2	2.963800E-2	7.459952E-2	3.164702E-2
10/19/2017  17:20:17.010055	-9.831563E-1	1.828100E-2	2.664372E-2	-1.014905E+1	1.202884E-2	2.200605E-2	8.222822E-2	3.164702E-2
10/19/2017  17:20:17.011055	3.411958E+0	8.105642E-3	2.664372E-2	-1.012614E+1	2.477858E-2	1.183011E-2	8.731403E-2	3.927877E-2
10/19/2017  17:20:17.012055	4.197435E+0	5.561801E-3	1.137250E-2	-1.012359E+1	2.732853E-2	1.437409E-2	7.205661E-2	3.927877E-2
10/19/2017  17:20:17.013055	1.706277E+0	1.319332E-2	1.391770E-2	-1.013123E+1	2.222863E-2	1.946206E-2	6.951371E-2	3.164702E-2
10/19/2017  17:20:17.014055	2.499381E+0	2.082484E-2	2.155331E-2	-1.013887E+1	2.222863E-2	2.963800E-2	7.205661E-2	2.655919E-2
10/19/2017  17:20:17.015055	2.995070E+0	1.064948E-2	2.409852E-2	-1.013632E+1	4.378993E-3	1.946206E-2	7.968532E-2	4.182269E-2
10/19/2017  17:20:17.016055	3.752585E+0	1.319332E-2	1.391770E-2	-1.012105E+1	1.712873E-2	1.183011E-2	8.222822E-2	3.927877E-2
10/19/2017  17:20:17.017055	3.676325E+0	2.082484E-2	8.827299E-3	-1.013378E+1	2.477858E-2	2.200605E-2	7.459952E-2	3.927877E-2
10/19/2017  17:20:17.018055	2.224845E+0	1.064948E-2	1.137250E-2	-1.015415E+1	2.477858E-2	2.200605E-2	7.205661E-2	2.655919E-2
								
10/19/2017  17:20:17.019055	6.996461E-1	1.828100E-2	1.646291E-2	-1.013887E+1	2.222863E-2	2.455003E-2	7.459952E-2	3.927877E-2
10/19/2017  17:20:17.020055	-7.213306E-1	1.828100E-2	2.664372E-2	-1.013632E+1	1.967868E-2	2.200605E-2	7.714242E-2	3.164702E-2
10/19/2017  17:20:17.021055	-2.632913E+0	1.319332E-2	1.646291E-2	-1.014651E+1	2.222863E-2	1.437409E-2	7.459952E-2	2.401527E-2
10/19/2017  17:20:17.022055	-3.248076E+0	1.573716E-2	1.137250E-2	-1.015924E+1	2.987847E-2	1.437409E-2	6.951371E-2	3.419094E-2
10/19/2017  17:20:17.023055	-2.088925E+0	1.828100E-2	2.155331E-2	-1.014651E+1	2.222863E-2	2.709402E-2	7.968532E-2	2.401527E-2
10/19/2017  17:20:17.024055	-2.167727E+0	1.319332E-2	2.664372E-2	-1.013887E+1	1.712873E-2	2.709402E-2	7.205661E-2	3.164702E-2
10/19/2017  17:20:17.025055	-2.058421E+0	3.017961E-3	1.646291E-2	-1.012869E+1	1.712873E-2	1.437409E-2	7.459952E-2	3.673486E-2
10/19/2017  17:20:17.026055	-1.900817E+0	1.828100E-2	1.391770E-2	-1.013887E+1	2.987847E-2	2.200605E-2	8.222822E-2	3.419094E-2
10/19/2017  17:20:17.027055	-9.780723E-1	2.336868E-2	2.409852E-2	-1.014396E+1	2.477858E-2	2.709402E-2	7.205661E-2	2.655919E-2
10/19/2017  17:20:17.028055	3.615605E-1	1.064948E-2	2.664372E-2	-1.013887E+1	1.457878E-2	2.200605E-2	7.459952E-2	3.164702E-2
10/19/2017  17:20:17.029055	8.648760E-1	1.064948E-2	2.409852E-2	-1.012359E+1	2.477858E-2	1.946206E-2	7.459952E-2	4.436661E-2
10/19/2017  17:20:17.030055	1.774911E+0	1.064948E-2	1.137250E-2	-1.013378E+1	2.477858E-2	1.946206E-2	6.951371E-2	3.164702E-2
10/19/2017  17:20:17.031055	3.785631E+0	2.082484E-2	1.900811E-2	-1.013887E+1	1.712873E-2	3.218199E-2	7.968532E-2	3.419094E-2
10/19/2017  17:20:17.032055	4.993080E+0	2.845637E-2	2.409852E-2	-1.014142E+1	2.732853E-2	1.946206E-2	7.714242E-2	2.910311E-2
10/19/2017  17:20:17.033055	3.633111E+0	1.319332E-2	6.282096E-3	-1.013123E+1	2.477858E-2	3.218199E-2	7.968532E-2	3.673486E-2
10/19/2017  17:20:17.034055	5.344163E-1	-4.613560E-3	2.155331E-2	-1.013632E+1	1.712873E-2	2.200605E-2	7.205661E-2	3.673486E-2
10/19/2017  17:20:17.035055	-2.693921E+0	1.319332E-2	1.391770E-2	-1.013887E+1	2.987847E-2	2.963800E-2	6.951371E-2	3.164702E-2
10/19/2017  17:20:17.036055	-2.554111E+0	3.100021E-2	1.137250E-2	-1.014142E+1	1.967868E-2	2.455003E-2	7.459952E-2	2.401527E-2
10/19/2017  17:20:17.037055	-3.352298E+0	2.082484E-2	1.900811E-2	-1.014905E+1	2.222863E-2	2.455003E-2	7.714242E-2	2.147136E-2
10/19/2017  17:20:17.038055	-2.617661E+0	8.105642E-3	2.664372E-2	-1.015160E+1	1.202884E-2	1.946206E-2	7.968532E-2	3.164702E-2
10/19/2017  17:20:17.039055	8.222774E-3	8.105642E-3	1.900811E-2	-1.013887E+1	2.477858E-2	1.437409E-2	7.459952E-2	3.927877E-2
10/19/2017  17:20:17.040055	2.827298E+0	-2.069720E-3	1.137250E-2	-1.012614E+1	3.242842E-2	1.437409E-2	6.951371E-2	3.419094E-2
10/19/2017  17:20:17.041055	4.998164E+0	1.319332E-2	1.646291E-2	-1.011850E+1	2.477858E-2	1.946206E-2	7.205661E-2	3.419094E-2
10/19/2017  17:20:17.042055	5.008332E+0	2.082484E-2	1.646291E-2	-1.012869E+1	2.987847E-2	2.455003E-2	7.714242E-2	2.401527E-2
10/19/2017  17:20:17.043055	4.576193E+0	1.573716E-2	1.900811E-2	-1.013632E+1	2.222863E-2	1.946206E-2	7.205661E-2	3.164702E-2
10/19/2017  17:20:17.044055	5.003248E+0	1.319332E-2	2.155331E-2	-1.013123E+1	3.752832E-2	1.946206E-2	7.968532E-2	2.655919E-2
10/19/2017  17:20:17.045055	4.865980E+0	1.064948E-2	2.155331E-2	-1.014142E+1	2.222863E-2	1.946206E-2	7.714242E-2	2.910311E-2
10/19/2017  17:20:17.046055	-4.849248E-1	1.573716E-2	8.827299E-3	-1.013378E+1	2.477858E-2	1.946206E-2	6.697081E-2	2.655919E-2
10/19/2017  17:20:17.047055	-4.038638E+0	1.319332E-2	1.191689E-3	-1.014396E+1	2.732853E-2	2.709402E-2	7.459952E-2	2.655919E-2
10/19/2017  17:20:17.048055	-1.994871E+0	2.082484E-2	1.646291E-2	-1.014905E+1	1.829045E-3	2.709402E-2	8.222822E-2	3.164702E-2
10/19/2017  17:20:17.049055	-4.264875E+0	1.319332E-2	2.155331E-2	-1.015924E+1	1.457878E-2	1.691808E-2	7.968532E-2	3.164702E-2
10/19/2017  17:20:17.050055	-4.313173E+0	1.064948E-2	2.155331E-2	-1.014142E+1	1.202884E-2	1.691808E-2	7.714242E-2	4.691052E-2
10/19/2017  17:20:17.051055	-4.778359E+0	1.319332E-2	1.646291E-2	-1.012614E+1	2.477858E-2	1.691808E-2	8.222822E-2	3.164702E-2
								
10/19/2017  17:20:17.052055	-4.915627E+0	1.828100E-2	8.827299E-3	-1.014905E+1	1.967868E-2	1.437409E-2	6.951371E-2	3.164702E-2
10/19/2017  17:20:17.053055	-3.759018E+0	2.591253E-2	1.391770E-2	-1.016942E+1	2.477858E-2	1.946206E-2	7.459952E-2	2.401527E-2
10/19/2017  17:20:17.054055	-1.804222E+0	1.573716E-2	2.918892E-2	-1.014396E+1	2.222863E-2	2.963800E-2	8.222822E-2	3.419094E-2
10/19/2017  17:20:17.055055	1.276967E-1	1.064948E-2	2.664372E-2	-1.013632E+1	1.712873E-2	2.709402E-2	7.968532E-2	3.419094E-2
10/19/2017  17:20:17.056055	3.110075E-2	5.561801E-3	2.409852E-2	-1.012869E+1	2.222863E-2	1.946206E-2	7.968532E-2	3.927877E-2
10/19/2017  17:20:17.057055	-1.120424E+0	1.064948E-2	1.900811E-2	-1.013123E+1	1.967868E-2	2.709402E-2	8.985693E-2	3.419094E-2
10/19/2017  17:20:17.058055	-1.224646E+0	1.573716E-2	1.137250E-2	-1.014396E+1	3.497837E-2	1.691808E-2	7.205661E-2	3.164702E-2
10/19/2017  17:20:17.059055	-1.341578E+0	1.828100E-2	1.900811E-2	-1.014905E+1	2.732853E-2	2.963800E-2	6.697081E-2	2.910311E-2
10/19/2017  17:20:17.060055	-1.211936E+0	1.828100E-2	1.137250E-2	-1.013887E+1	1.202884E-2	2.709402E-2	7.714242E-2	3.673486E-2
10/19/2017  17:20:17.061055	-8.916444E-1	1.319332E-2	2.409852E-2	-1.014142E+1	1.457878E-2	1.946206E-2	7.205661E-2	3.164702E-2
10/19/2017  17:20:17.062055	-6.399866E-1	8.105642E-3	2.155331E-2	-1.012614E+1	1.712873E-2	1.437409E-2	7.459952E-2	3.673486E-2
10/19/2017  17:20:17.063055	-3.451149E-1	2.082484E-2	1.900811E-2	-1.013887E+1	2.222863E-2	1.691808E-2	7.968532E-2	3.419094E-2
10/19/2017  17:20:17.064055	-2.482320E-2	1.573716E-2	1.137250E-2	-1.014651E+1	3.242842E-2	1.691808E-2	7.968532E-2	3.164702E-2
10/19/2017  17:20:17.065055	1.149867E-1	2.082484E-2	1.391770E-2	-1.014396E+1	2.222863E-2	2.455003E-2	7.714242E-2	3.419094E-2
10/19/2017  17:20:17.066055	8.448270E-2	1.319332E-2	2.409852E-2	-1.013887E+1	1.457878E-2	3.726996E-2	8.222822E-2	4.182269E-2
10/19/2017  17:20:17.067055	8.702470E-2	3.100021E-2	1.900811E-2	-1.013632E+1	1.457878E-2	1.691808E-2	7.968532E-2	3.419094E-2
10/19/2017  17:20:17.068055	-3.753318E-2	1.319332E-2	1.900811E-2	-1.013887E+1	2.222863E-2	1.183011E-2	7.968532E-2	2.655919E-2
10/19/2017  17:20:17.069055	6.030502E-1	5.561801E-3	1.900811E-2	-1.015415E+1	2.987847E-2	2.200605E-2	7.968532E-2	3.419094E-2
10/19/2017  17:20:17.070055	1.518169E+0	2.336868E-2	2.155331E-2	-1.013887E+1	2.732853E-2	2.963800E-2	8.222822E-2	3.164702E-2
10/19/2017  17:20:17.071055	1.904553E+0	1.319332E-2	2.155331E-2	-1.013378E+1	1.457878E-2	2.200605E-2	7.459952E-2	2.910311E-2
10/19/2017  17:20:17.072055	2.440915E+0	5.561801E-3	1.900811E-2	-1.013123E+1	2.477858E-2	1.437409E-2	7.968532E-2	3.164702E-2
10/19/2017  17:20:17.073055	2.873054E+0	1.573716E-2	1.391770E-2	-1.012359E+1	2.732853E-2	1.946206E-2	7.459952E-2	2.910311E-2
10/19/2017  17:20:17.074055	4.205061E+0	1.828100E-2	1.900811E-2	-1.013887E+1	2.222863E-2	2.455003E-2	7.459952E-2	2.910311E-2
10/19/2017  17:20:17.075055	1.734239E+0	1.319332E-2	2.664372E-2	-1.013887E+1	3.497837E-2	2.963800E-2	8.222822E-2	3.927877E-2
10/19/2017  17:20:17.076055	-1.407670E+0	8.105642E-3	2.664372E-2	-1.013632E+1	1.457878E-2	1.437409E-2	8.477112E-2	3.927877E-2
10/19/2017  17:20:17.077055	-1.605946E+0	1.064948E-2	1.391770E-2	-1.014142E+1	1.712873E-2	1.946206E-2	8.477112E-2	2.401527E-2
10/19/2017  17:20:17.078055	9.919759E-1	1.064948E-2	1.900811E-2	-1.015415E+1	2.477858E-2	1.691808E-2	7.968532E-2	2.910311E-2
10/19/2017  17:20:17.079055	2.402785E+0	1.064948E-2	2.155331E-2	-1.013632E+1	2.222863E-2	2.963800E-2	7.714242E-2	4.182269E-2
10/19/2017  17:20:17.080055	1.083488E+0	1.573716E-2	2.918892E-2	-1.013123E+1	1.457878E-2	2.200605E-2	7.968532E-2	3.164702E-2
10/19/2017  17:20:17.081055	1.248718E+0	5.561801E-3	2.155331E-2	-1.013378E+1	2.222863E-2	1.691808E-2	7.714242E-2	4.945444E-2
10/19/2017  17:20:17.082055	2.298563E+0	1.064948E-2	1.137250E-2	-1.012869E+1	2.732853E-2	2.709402E-2	7.205661E-2	2.910311E-2
10/19/2017  17:20:17.083055	-2.010123E+0	1.573716E-2	1.391770E-2	-1.013887E+1	1.967868E-2	1.946206E-2	7.968532E-2	1.383961E-2
10/19/2017  17:20:17.084055	-3.799690E+0	1.573716E-2	1.391770E-2	-1.013632E+1	2.477858E-2	1.691808E-2	7.205661E-2	3.164702E-2
								
10/19/2017  17:20:17.085055	-3.575994E+0	1.573716E-2	3.173413E-2	-1.014905E+1	1.967868E-2	2.200605E-2	8.222822E-2	3.419094E-2
10/19/2017  17:20:17.086055	-1.476304E+0	5.561801E-3	1.900811E-2	-1.013632E+1	1.712873E-2	1.183011E-2	7.205661E-2	3.673486E-2
10/19/2017  17:20:17.087055	-4.595048E-1	3.017961E-3	1.137250E-2	-1.013887E+1	1.967868E-2	2.455003E-2	7.968532E-2	3.164702E-2
10/19/2017  17:20:17.088055	-6.549516E-2	1.573716E-2	1.646291E-2	-1.013887E+1	2.222863E-2	1.946206E-2	8.731403E-2	3.673486E-2
10/19/2017  17:20:17.089055	-9.599913E-2	2.082484E-2	1.391770E-2	-1.014651E+1	2.732853E-2	2.200605E-2	7.459952E-2	3.164702E-2
10/19/2017  17:20:17.090055	-9.323164E-1	1.828100E-2	2.409852E-2	-1.013887E+1	1.712873E-2	2.455003E-2	7.968532E-2	3.927877E-2
10/19/2017  17:20:17.091055	-2.378713E+0	1.064948E-2	3.173413E-2	-1.013632E+1	2.222863E-2	2.200605E-2	7.714242E-2	4.182269E-2
10/19/2017  17:20:17.092055	-1.733046E+0	1.064948E-2	1.391770E-2	-1.013887E+1	2.477858E-2	1.946206E-2	6.951371E-2	2.910311E-2
10/19/2017  17:20:17.093055	4.912023E-1	1.828100E-2	8.827299E-3	-1.014396E+1	1.202884E-2	9.286120E-3	7.714242E-2	2.655919E-2
10/19/2017  17:20:17.094055	1.464787E+0	2.336868E-2	2.155331E-2	-1.013632E+1	2.222863E-2	1.691808E-2	7.459952E-2	3.164702E-2
10/19/2017  17:20:17.095055	1.813041E+0	1.828100E-2	1.391770E-2	-1.013887E+1	2.222863E-2	3.472597E-2	8.477112E-2	3.673486E-2
10/19/2017  17:20:17.096055	3.068788E+0	3.017961E-3	1.900811E-2	-1.013887E+1	1.967868E-2	1.946206E-2	7.714242E-2	3.164702E-2
10/19/2017  17:20:17.097055	2.313815E+0	1.319332E-2	1.900811E-2	-1.013632E+1	2.987847E-2	2.963800E-2	7.459952E-2	3.164702E-2
10/19/2017  17:20:17.098055	-1.171264E+0	1.828100E-2	1.646291E-2	-1.014142E+1	2.222863E-2	2.709402E-2	7.714242E-2	3.419094E-2
10/19/2017  17:20:17.099055	-3.731056E+0	1.319332E-2	2.155331E-2	-1.014651E+1	1.457878E-2	2.455003E-2	8.477112E-2	2.910311E-2
10/19/2017  17:20:17.100055	-1.539854E+0	1.828100E-2	1.137250E-2	-1.014905E+1	2.732853E-2	1.183011E-2	7.714242E-2	4.182269E-2
10/19/2017  17:20:17.101055	-1.003492E+0	1.573716E-2	1.137250E-2	-1.014651E+1	2.987847E-2	2.200605E-2	6.951371E-2	3.673486E-2
10/19/2017  17:20:17.102055	3.607692E+0	1.573716E-2	1.900811E-2	-1.013378E+1	9.478889E-3	1.946206E-2	7.459952E-2	2.655919E-2
10/19/2017  17:20:17.103055	4.995622E+0	1.573716E-2	1.391770E-2	-1.013123E+1	1.712873E-2	2.200605E-2	8.477112E-2	3.673486E-2
10/19/2017  17:20:17.104055	4.987996E+0	1.319332E-2	2.664372E-2	-1.011341E+1	1.457878E-2	1.183011E-2	8.477112E-2	4.436661E-2
10/19/2017  17:20:17.105055	-1.893192E+0	8.105642E-3	1.137250E-2	-1.013123E+1	2.732853E-2	1.437409E-2	6.697081E-2	3.673486E-2
10/19/2017  17:20:17.106055	-4.895291E+0	2.591253E-2	1.391770E-2	-1.015160E+1	2.477858E-2	2.709402E-2	6.442791E-2	3.419094E-2
10/19/2017  17:20:17.107055	-3.415848E+0	2.082484E-2	2.918892E-2	-1.015415E+1	2.222863E-2	2.455003E-2	7.459952E-2	3.164702E-2
10/19/2017  17:20:17.108055	-2.848983E+0	1.828100E-2	1.900811E-2	-1.014651E+1	4.378993E-3	1.946206E-2	7.205661E-2	3.673486E-2
10/19/2017  17:20:17.109055	-3.679929E-1	1.573716E-2	1.137250E-2	-1.012869E+1	2.477858E-2	2.455003E-2	7.968532E-2	3.164702E-2
10/19/2017  17:20:17.110055	1.935057E+0	1.573716E-2	1.391770E-2	-1.013378E+1	1.967868E-2	2.200605E-2	8.222822E-2	4.691052E-2
10/19/2017  17:20:17.111055	2.659526E+0	1.573716E-2	1.900811E-2	-1.013632E+1	1.457878E-2	2.455003E-2	7.205661E-2	2.401527E-2
10/19/2017  17:20:17.112055	-9.345713E-2	1.319332E-2	2.409852E-2	-1.014142E+1	1.457878E-2	1.946206E-2	8.731403E-2	2.147136E-2
10/19/2017  17:20:17.113055	-3.105724E+0	1.828100E-2	2.664372E-2	-1.011850E+1	2.222863E-2	1.946206E-2	7.968532E-2	3.927877E-2
10/19/2017  17:20:17.114055	-3.286206E+0	1.064948E-2	1.137250E-2	-1.014396E+1	2.222863E-2	1.183011E-2	6.951371E-2	2.910311E-2
10/19/2017  17:20:17.115055	-1.201768E+0	1.573716E-2	1.646291E-2	-1.014396E+1	2.987847E-2	1.691808E-2	7.459952E-2	2.655919E-2
10/19/2017  17:20:17.116055	-6.806586E-1	2.591253E-2	1.900811E-2	-1.014396E+1	2.477858E-2	2.455003E-2	7.205661E-2	2.401527E-2
10/19/2017  17:20:17.117055	-2.002210E-1	1.319332E-2	1.900811E-2	-1.015669E+1	1.967868E-2	1.183011E-2	7.205661E-2	3.164702E-2
								
10/19/2017  17:20:17.118055	-7.312115E-2	1.064948E-2	1.900811E-2	-1.013632E+1	2.222863E-2	1.691808E-2	8.222822E-2	2.910311E-2
10/19/2017  17:20:17.119055	2.598805E-1	1.064948E-2	1.900811E-2	-1.013123E+1	2.477858E-2	1.183011E-2	8.477112E-2	2.910311E-2
10/19/2017  17:20:17.120055	2.471706E-1	2.336868E-2	2.155331E-2	-1.013887E+1	3.242842E-2	1.946206E-2	7.714242E-2	3.164702E-2
10/19/2017  17:20:17.121055	1.607426E-1	1.319332E-2	2.155331E-2	-1.014651E+1	2.222863E-2	2.963800E-2	7.205661E-2	2.655919E-2
10/19/2017  17:20:17.122055	3.437665E-1	2.082484E-2	3.173413E-2	-1.014651E+1	2.222863E-2	2.963800E-2	8.477112E-2	3.164702E-2
10/19/2017  17:20:17.123055	5.064543E-1	8.105642E-3	2.664372E-2	-1.013123E+1	1.202884E-2	1.183011E-2	8.477112E-2	3.673486E-2
10/19/2017  17:20:17.124055	4.835763E-1	1.064948E-2	2.918892E-2	-1.013123E+1	1.457878E-2	9.286120E-3	7.968532E-2	3.419094E-2
10/19/2017  17:20:17.125055	3.742704E-1	2.336868E-2	1.391770E-2	-1.013632E+1	2.987847E-2	1.946206E-2	7.459952E-2	3.164702E-2
10/19/2017  17:20:17.126055	5.700043E-1	1.828100E-2	1.900811E-2	-1.014142E+1	2.477858E-2	2.455003E-2	7.714242E-2	3.164702E-2
10/19/2017  17:20:17.127055	1.058068E+0	1.828100E-2	2.409852E-2	-1.014142E+1	1.457878E-2	2.709402E-2	8.222822E-2	3.164702E-2
10/19/2017  17:20:17.128055	1.103824E+0	1.573716E-2	1.900811E-2	-1.013632E+1	2.477858E-2	1.654165E-3	7.968532E-2	4.182269E-2
10/19/2017  17:20:17.129055	8.470820E-1	1.828100E-2	1.900811E-2	-1.013632E+1	2.987847E-2	1.946206E-2	7.714242E-2	2.910311E-2
10/19/2017  17:20:17.130055	1.582006E-1	1.828100E-2	2.155331E-2	-1.013887E+1	2.732853E-2	1.183011E-2	7.714242E-2	2.910311E-2
10/19/2017  17:20:17.131055	-1.112798E+0	1.828100E-2	1.646291E-2	-1.013378E+1	2.732853E-2	1.946206E-2	7.714242E-2	3.164702E-2
10/19/2017  17:20:17.132055	-2.383510E-1	1.319332E-2	2.664372E-2	-1.014142E+1	1.457878E-2	1.946206E-2	7.968532E-2	4.182269E-2
10/19/2017  17:20:17.133055	1.048187E-1	-9.701241E-3	1.391770E-2	-1.013887E+1	1.457878E-2	1.691808E-2	7.205661E-2	3.673486E-2
10/19/2017  17:20:17.134055	3.618475E-2	1.064948E-2	1.646291E-2	-1.013632E+1	2.732853E-2	1.691808E-2	7.205661E-2	3.164702E-2
10/19/2017  17:20:17.135055	-7.566315E-2	1.573716E-2	1.137250E-2	-1.013123E+1	4.262821E-2	1.946206E-2	7.205661E-2	3.419094E-2
10/19/2017  17:20:17.136055	3.872675E-2	2.591253E-2	1.137250E-2	-1.014651E+1	1.967868E-2	2.455003E-2	7.459952E-2	2.910311E-2
10/19/2017  17:20:17.137055	5.680776E-3	1.828100E-2	2.664372E-2	-1.014396E+1	1.967868E-2	2.709402E-2	8.477112E-2	3.673486E-2
10/19/2017  17:20:17.138055	-5.532717E-2	1.319332E-2	3.427933E-2	-1.012614E+1	1.712873E-2	2.200605E-2	8.477112E-2	3.927877E-2
10/19/2017  17:20:17.139055	6.668872E-2	8.105642E-3	1.391770E-2	-1.013378E+1	1.457878E-2	1.437409E-2	7.205661E-2	3.164702E-2
10/19/2017  17:20:17.140055	5.652073E-2	1.573716E-2	1.137250E-2	-1.012869E+1	2.732853E-2	1.946206E-2	7.205661E-2	2.655919E-2
10/19/2017  17:20:17.141055	9.465070E-2	2.845637E-2	1.900811E-2	-1.013887E+1	2.477858E-2	2.455003E-2	7.714242E-2	3.164702E-2
10/19/2017  17:20:17.142055	2.751325E-1	1.319332E-2	2.155331E-2	-1.014905E+1	1.457878E-2	1.946206E-2	7.714242E-2	3.927877E-2
10/19/2017  17:20:17.143055	1.327807E-1	5.561801E-3	2.155331E-2	-1.013632E+1	2.477858E-2	1.691808E-2	7.459952E-2	3.927877E-2
10/19/2017  17:20:17.144055	2.064986E-1	1.319332E-2	2.155331E-2	-1.011596E+1	2.477858E-2	2.455003E-2	8.222822E-2	3.164702E-2
10/19/2017  17:20:17.145055	-2.383510E-1	1.828100E-2	1.391770E-2	-1.013887E+1	2.222863E-2	1.691808E-2	7.714242E-2	2.910311E-2
10/19/2017  17:20:17.146055	7.733641E-1	2.082484E-2	1.900811E-2	-1.015669E+1	2.222863E-2	1.946206E-2	7.459952E-2	3.164702E-2
10/19/2017  17:20:17.147055	1.538505E+0	2.082484E-2	2.155331E-2	-1.014142E+1	1.712873E-2	2.963800E-2	8.731403E-2	3.164702E-2
10/19/2017  17:20:17.148055	3.554310E+0	1.064948E-2	2.409852E-2	-1.014651E+1	1.457878E-2	6.742135E-3	7.459952E-2	3.927877E-2
10/19/2017  17:20:17.149055	4.067793E+0	4.741205E-4	2.664372E-2	-1.012105E+1	2.477858E-2	1.946206E-2	7.714242E-2	3.419094E-2
10/19/2017  17:20:17.150055	2.252807E+0	1.319332E-2	1.137250E-2	-1.013378E+1	2.477858E-2	1.946206E-2	7.968532E-2	3.164702E-2
								
10/19/2017  17:20:17.151055	-1.059416E+0	1.573716E-2	6.282096E-3	-1.013632E+1	1.712873E-2	1.946206E-2	7.714242E-2	2.401527E-2
10/19/2017  17:20:17.152055	-2.475309E+0	1.828100E-2	2.155331E-2	-1.015669E+1	2.222863E-2	2.200605E-2	6.442791E-2	3.164702E-2
10/19/2017  17:20:17.153055	-1.018744E+0	1.573716E-2	2.409852E-2	-1.013887E+1	1.712873E-2	2.455003E-2	8.222822E-2	3.419094E-2
10/19/2017  17:20:17.154055	1.332604E+0	1.064948E-2	1.900811E-2	-1.012869E+1	2.222863E-2	1.691808E-2	7.968532E-2	3.673486E-2
10/19/2017  17:20:17.155055	2.674778E+0	1.064948E-2	1.137250E-2	-1.012359E+1	2.477858E-2	2.200605E-2	7.714242E-2	3.164702E-2
10/19/2017  17:20:17.156055	-5.281387E-1	2.082484E-2	1.137250E-2	-1.013378E+1	2.987847E-2	2.455003E-2	7.205661E-2	3.419094E-2
10/19/2017  17:20:17.157055	-2.579531E+0	2.082484E-2	1.646291E-2	-1.014905E+1	2.477858E-2	1.691808E-2	7.205661E-2	3.164702E-2
10/19/2017  17:20:17.158055	-2.233819E+0	1.064948E-2	2.155331E-2	-1.014651E+1	1.712873E-2	2.709402E-2	8.222822E-2	3.419094E-2
10/19/2017  17:20:17.159055	-1.087378E+0	1.828100E-2	2.155331E-2	-1.013632E+1	1.967868E-2	3.218199E-2	8.477112E-2	4.436661E-2
10/19/2017  17:20:17.160055	-1.976790E-1	1.828100E-2	1.646291E-2	-1.012614E+1	2.477858E-2	1.691808E-2	7.205661E-2	3.419094E-2
10/19/2017  17:20:17.161055	-1.300906E+0	1.319332E-2	1.900811E-2	-1.013887E+1	2.477858E-2	6.742135E-3	7.968532E-2	2.655919E-2
10/19/2017  17:20:17.162055	-4.066600E+0	-2.069720E-3	1.900811E-2	-1.015415E+1	2.987847E-2	1.946206E-2	7.968532E-2	2.910311E-2
10/19/2017  17:20:17.163055	-2.734593E+0	1.828100E-2	1.900811E-2	-1.014651E+1	2.222863E-2	2.709402E-2	7.714242E-2	2.147136E-2
10/19/2017  17:20:17.164055	2.146043E+0	8.105642E-3	2.155331E-2	-1.014905E+1	1.202884E-2	1.946206E-2	8.222822E-2	3.419094E-2
10/19/2017  17:20:17.165055	4.116091E+0	8.105642E-3	2.155331E-2	-1.012614E+1	1.457878E-2	1.691808E-2	8.222822E-2	3.673486E-2
10/19/2017  17:20:17.166055	4.993080E+0	1.064948E-2	1.646291E-2	-1.011086E+1	2.477858E-2	1.183011E-2	7.714242E-2	3.419094E-2
10/19/2017  17:20:17.167055	3.460256E+0	1.319332E-2	1.900811E-2	-1.013123E+1	2.477858E-2	1.946206E-2	7.714242E-2	3.164702E-2
10/19/2017  17:20:17.168055	3.363660E+0	1.064948E-2	1.900811E-2	-1.013378E+1	3.242842E-2	2.200605E-2	6.951371E-2	3.927877E-2
10/19/2017  17:20:17.169055	1.518169E+0	1.828100E-2	1.646291E-2	-1.014142E+1	2.732853E-2	2.709402E-2	7.205661E-2	2.655919E-2
10/19/2017  17:20:17.170055	-1.773718E+0	2.082484E-2	1.900811E-2	-1.014651E+1	2.222863E-2	2.709402E-2	7.968532E-2	2.401527E-2
10/19/2017  17:20:17.171055	-2.765097E+0	1.828100E-2	2.155331E-2	-1.015669E+1	1.457878E-2	2.709402E-2	8.477112E-2	3.419094E-2
10/19/2017  17:20:17.172055	-4.941047E+0	8.105642E-3	2.409852E-2	-1.015415E+1	1.457878E-2	1.946206E-2	8.731403E-2	3.164702E-2
10/19/2017  17:20:17.173055	-2.767639E+0	5.561801E-3	1.391770E-2	-1.014651E+1	2.477858E-2	1.437409E-2	7.459952E-2	4.182269E-2
10/19/2017  17:20:17.174055	2.247723E+0	1.573716E-2	1.646291E-2	-1.013378E+1	2.987847E-2	1.946206E-2	7.205661E-2	4.945444E-2
10/19/2017  17:20:17.175055	4.993080E+0	1.573716E-2	2.918892E-2	-1.010832E+1	2.222863E-2	2.200605E-2	7.714242E-2	3.419094E-2
10/19/2017  17:20:17.176055	6.818522E-1	2.082484E-2	1.391770E-2	-1.013632E+1	2.222863E-2	2.455003E-2	7.968532E-2	2.655919E-2
10/19/2017  17:20:17.177055	-4.730061E+0	1.828100E-2	2.409852E-2	-1.016178E+1	1.457878E-2	1.183011E-2	8.222822E-2	3.419094E-2
10/19/2017  17:20:17.178055	-4.463151E+0	1.319332E-2	2.155331E-2	-1.015415E+1	2.477858E-2	2.200605E-2	7.714242E-2	3.164702E-2
10/19/2017  17:20:17.179055	-3.304000E+0	3.017961E-3	1.391770E-2	-1.014651E+1	2.222863E-2	1.946206E-2	7.205661E-2	3.673486E-2
10/19/2017  17:20:17.180055	-1.684748E+0	1.064948E-2	8.827299E-3	-1.013887E+1	1.712873E-2	2.709402E-2	7.714242E-2	3.419094E-2
10/19/2017  17:20:17.181055	5.598363E-1	1.319332E-2	1.646291E-2	-1.013123E+1	1.967868E-2	1.946206E-2	7.205661E-2	3.164702E-2
10/19/2017  17:20:17.182055	1.617307E+0	2.082484E-2	6.282096E-3	-1.014142E+1	2.477858E-2	2.200605E-2	7.459952E-2	2.655919E-2
10/19/2017  17:20:17.183055	1.546131E+0	1.573716E-2	2.664372E-2	-1.013887E+1	1.712873E-2	2.963800E-2	9.239983E-2	3.419094E-2
								
10/19/2017  17:20:17.184055	4.759504E-1	1.828100E-2	2.155331E-2	-1.013887E+1	2.477858E-2	2.709402E-2	7.968532E-2	3.419094E-2
10/19/2017  17:20:17.185055	4.635274E-2	8.105642E-3	1.391770E-2	-1.013378E+1	1.967868E-2	1.437409E-2	5.679920E-2	3.673486E-2
10/19/2017  17:20:17.186055	-5.433907E-1	1.064948E-2	1.191689E-3	-1.014142E+1	1.967868E-2	1.183011E-2	6.951371E-2	3.164702E-2
10/19/2017  17:20:17.187055	-1.224646E+0	2.591253E-2	1.391770E-2	-1.014396E+1	2.732853E-2	2.455003E-2	6.951371E-2	2.910311E-2
10/19/2017  17:20:17.188055	-9.170644E-1	2.082484E-2	2.155331E-2	-1.014905E+1	2.477858E-2	3.981394E-2	7.459952E-2	2.910311E-2
10/19/2017  17:20:17.189055	-6.806586E-1	5.561801E-3	2.409852E-2	-1.014142E+1	1.202884E-2	1.946206E-2	7.714242E-2	3.673486E-2
10/19/2017  17:20:17.190055	-2.891910E-1	8.105642E-3	1.900811E-2	-1.013632E+1	2.477858E-2	2.963800E-2	7.714242E-2	4.436661E-2
10/19/2017  17:20:17.191055	6.767682E-1	4.741205E-4	1.900811E-2	-1.013123E+1	2.477858E-2	2.200605E-2	7.968532E-2	3.164702E-2
10/19/2017  17:20:17.192055	1.032648E+0	1.828100E-2	8.827299E-3	-1.013632E+1	2.477858E-2	9.286120E-3	6.951371E-2	2.147136E-2
10/19/2017  17:20:17.193055	1.169916E+0	3.100021E-2	1.900811E-2	-1.014651E+1	2.987847E-2	2.709402E-2	7.714242E-2	2.910311E-2
10/19/2017  17:20:17.194055	2.074867E+0	1.573716E-2	2.664372E-2	-1.013378E+1	1.457878E-2	2.709402E-2	8.222822E-2	3.673486E-2
10/19/2017  17:20:17.195055	9.919759E-1	-7.157401E-3	2.409852E-2	-1.013632E+1	9.478889E-3	1.691808E-2	8.222822E-2	3.673486E-2
10/19/2017  17:20:17.196055	1.169916E+0	5.561801E-3	1.900811E-2	-1.013378E+1	2.477858E-2	1.691808E-2	7.459952E-2	4.182269E-2
10/19/2017  17:20:17.197055	3.030658E+0	1.319332E-2	1.137250E-2	-1.012614E+1	1.457878E-2	1.946206E-2	7.459952E-2	2.910311E-2
10/19/2017  17:20:17.198055	4.149137E+0	2.082484E-2	1.646291E-2	-1.014396E+1	2.222863E-2	2.709402E-2	7.714242E-2	2.401527E-2
10/19/2017  17:20:17.199055	2.707824E+0	1.828100E-2	2.155331E-2	-1.013632E+1	2.477858E-2	2.963800E-2	8.731403E-2	3.164702E-2
10/19/2017  17:20:17.200055	-1.966909E+0	1.573716E-2	2.918892E-2	-1.013632E+1	1.202884E-2	2.455003E-2	8.222822E-2	3.927877E-2
10/19/2017  17:20:17.201055	-2.045711E+0	1.828100E-2	1.646291E-2	-1.014142E+1	9.478889E-3	1.437409E-2	6.951371E-2	3.164702E-2
10/19/2017  17:20:17.202055	-6.501546E-1	8.105642E-3	1.137250E-2	-1.014905E+1	1.967868E-2	2.200605E-2	7.968532E-2	3.164702E-2
10/19/2017  17:20:17.203055	-8.585984E-1	2.082484E-2	1.391770E-2	-1.013632E+1	2.732853E-2	1.946206E-2	7.205661E-2	4.945444E-2
10/19/2017  17:20:17.204055	-2.760013E+0	1.828100E-2	1.646291E-2	-1.015160E+1	2.477858E-2	2.455003E-2	7.459952E-2	2.910311E-2
10/19/2017  17:20:17.205055	-3.886118E+0	1.573716E-2	2.409852E-2	-1.015160E+1	1.712873E-2	2.963800E-2	7.714242E-2	1.638352E-2
10/19/2017  17:20:17.206055	-4.041180E+0	1.319332E-2	2.664372E-2	-1.012869E+1	1.457878E-2	2.709402E-2	8.222822E-2	3.419094E-2
10/19/2017  17:20:17.207055	-1.516976E+0	8.105642E-3	1.900811E-2	-1.013632E+1	1.712873E-2	1.691808E-2	8.222822E-2	2.401527E-2
10/19/2017  17:20:17.208055	3.462798E+0	8.105642E-3	1.391770E-2	-1.015415E+1	2.222863E-2	6.742135E-3	7.459952E-2	3.927877E-2
10/19/2017  17:20:17.209055	4.360123E+0	2.082484E-2	1.391770E-2	-1.012869E+1	3.497837E-2	2.455003E-2	6.951371E-2	3.419094E-2
10/19/2017  17:20:17.210055	4.329619E+0	2.082484E-2	1.391770E-2	-1.013632E+1	2.987847E-2	2.455003E-2	7.205661E-2	2.655919E-2
10/19/2017  17:20:17.211055	3.526348E+0	2.082484E-2	1.900811E-2	-1.014142E+1	1.202884E-2	2.200605E-2	8.222822E-2	3.164702E-2
10/19/2017  17:20:17.212055	4.672789E+0	1.573716E-2	2.409852E-2	-1.013378E+1	1.712873E-2	1.946206E-2	7.714242E-2	3.419094E-2
10/19/2017  17:20:17.213055	2.682404E+0	1.064948E-2	2.664372E-2	-1.012869E+1	2.477858E-2	1.437409E-2	7.714242E-2	3.419094E-2
10/19/2017  17:20:17.214055	-5.433907E-1	1.319332E-2	1.391770E-2	-1.014651E+1	2.987847E-2	1.946206E-2	6.951371E-2	3.419094E-2
10/19/2017  17:20:17.215055	-3.921706E+0	1.828100E-2	3.173413E-2	-1.014142E+1	2.222863E-2	2.455003E-2	7.968532E-2	2.910311E-2
10/19/2017  17:20:17.216055	-3.128602E+0	8.105642E-3	1.900811E-2	-1.014651E+1	2.222863E-2	2.200605E-2	7.714242E-2	2.910311E-2
								
10/19/2017  17:20:17.217055	-2.053337E+0	8.105642E-3	2.155331E-2	-1.014651E+1	1.712873E-2	9.286120E-3	7.968532E-2	3.164702E-2
10/19/2017  17:20:17.218055	-4.086648E-1	8.105642E-3	8.827299E-3	-1.013887E+1	3.242842E-2	1.691808E-2	7.205661E-2	4.182269E-2
10/19/2017  17:20:17.219055	-1.008576E+0	1.828100E-2	1.137250E-2	-1.014651E+1	2.732853E-2	3.472597E-2	7.205661E-2	2.655919E-2
10/19/2017  17:20:17.220055	-2.625287E+0	1.573716E-2	2.155331E-2	-1.013887E+1	1.712873E-2	2.963800E-2	8.222822E-2	2.401527E-2
10/19/2017  17:20:17.221055	-2.663417E+0	1.828100E-2	2.409852E-2	-1.013887E+1	1.457878E-2	1.183011E-2	8.222822E-2	3.164702E-2
10/19/2017  17:20:17.222055	-1.519518E+0	1.828100E-2	1.646291E-2	-1.012869E+1	2.477858E-2	1.691808E-2	7.459952E-2	3.927877E-2
10/19/2017  17:20:17.223055	1.495291E+0	1.573716E-2	1.137250E-2	-1.013887E+1	2.987847E-2	6.742135E-3	6.697081E-2	3.164702E-2
10/19/2017  17:20:17.224055	4.492307E+0	3.608789E-2	1.900811E-2	-1.013887E+1	3.242842E-2	2.709402E-2	7.459952E-2	3.164702E-2
10/19/2017  17:20:17.225055	5.003248E+0	1.319332E-2	2.664372E-2	-1.012105E+1	1.202884E-2	2.200605E-2	8.222822E-2	3.673486E-2
10/19/2017  17:20:17.226055	5.003248E+0	1.573716E-2	2.155331E-2	-1.012105E+1	1.202884E-2	1.946206E-2	7.205661E-2	3.673486E-2
10/19/2017  17:20:17.227055	3.264522E+0	1.319332E-2	1.646291E-2	-1.012869E+1	2.222863E-2	2.455003E-2	7.714242E-2	3.673486E-2
10/19/2017  17:20:17.228055	-3.764102E+0	1.828100E-2	1.646291E-2	-1.014396E+1	4.007827E-2	1.946206E-2	7.459952E-2	3.927877E-2
10/19/2017  17:20:17.229055	-4.796153E+0	1.573716E-2	1.900811E-2	-1.016178E+1	2.477858E-2	2.200605E-2	6.951371E-2	3.419094E-2
10/19/2017  17:20:17.230055	-4.511449E+0	1.319332E-2	2.409852E-2	-1.014905E+1	1.712873E-2	1.946206E-2	7.968532E-2	3.673486E-2
10/19/2017  17:20:17.231055	-2.055879E+0	8.105642E-3	2.409852E-2	-1.014142E+1	1.457878E-2	1.946206E-2	7.968532E-2	4.182269E-2
10/19/2017  17:20:17.232055	-2.307250E-1	1.064948E-2	1.391770E-2	-1.013632E+1	1.457878E-2	1.437409E-2	6.697081E-2	2.910311E-2
10/19/2017  17:20:17.233055	5.903402E-1	1.828100E-2	6.282096E-3	-1.013632E+1	2.987847E-2	1.691808E-2	7.205661E-2	2.655919E-2
10/19/2017  17:20:17.234055	2.624225E-1	2.591253E-2	1.900811E-2	-1.013887E+1	2.222863E-2	2.455003E-2	7.968532E-2	2.655919E-2
10/19/2017  17:20:17.235055	1.879133E+0	1.319332E-2	2.409852E-2	-1.013378E+1	2.222863E-2	1.691808E-2	7.459952E-2	3.164702E-2
10/19/2017  17:20:17.236055	4.489765E+0	1.064948E-2	2.155331E-2	-1.013123E+1	2.222863E-2	1.946206E-2	7.714242E-2	3.673486E-2
10/19/2017  17:20:17.237055	2.761206E+0	1.319332E-2	2.155331E-2	-1.013378E+1	1.967868E-2	2.963800E-2	7.968532E-2	3.164702E-2
10/19/2017  17:20:17.238055	-1.992329E+0	1.573716E-2	1.646291E-2	-1.014396E+1	2.732853E-2	1.946206E-2	7.205661E-2	3.164702E-2
10/19/2017  17:20:17.239055	-4.460609E+0	2.082484E-2	1.900811E-2	-1.016433E+1	2.222863E-2	1.946206E-2	7.714242E-2	2.910311E-2
10/19/2017  17:20:17.240055	-2.790517E+0	1.828100E-2	2.664372E-2	-1.014142E+1	1.457878E-2	2.200605E-2	7.968532E-2	3.419094E-2
10/19/2017  17:20:17.241055	-3.136228E+0	1.064948E-2	1.900811E-2	-1.013632E+1	2.477858E-2	1.437409E-2	6.697081E-2	3.927877E-2
10/19/2017  17:20:17.242055	-1.311074E+0	8.105642E-3	1.646291E-2	-1.013378E+1	2.732853E-2	1.183011E-2	6.951371E-2	3.673486E-2
10/19/2017  17:20:17.243055	-3.908709E-1	1.828100E-2	1.137250E-2	-1.013632E+1	3.242842E-2	1.946206E-2	7.968532E-2	3.419094E-2
10/19/2017  17:20:17.244055	6.437222E-1	3.100021E-2	1.900811E-2	-1.014142E+1	2.477858E-2	2.455003E-2	7.205661E-2	2.655919E-2
10/19/2017  17:20:17.245055	2.346861E+0	1.573716E-2	2.664372E-2	-1.013632E+1	1.457878E-2	2.963800E-2	7.205661E-2	3.673486E-2
10/19/2017  17:20:17.246055	1.256344E+0	1.573716E-2	1.646291E-2	-1.013123E+1	1.202884E-2	1.946206E-2	8.222822E-2	4.182269E-2
10/19/2017  17:20:17.247055	3.150132E+0	1.064948E-2	1.646291E-2	-1.012105E+1	2.222863E-2	1.946206E-2	7.714242E-2	2.910311E-2
10/19/2017  17:20:17.248055	9.335099E-1	1.573716E-2	3.173413E-2	-1.013378E+1	1.967868E-2	1.946206E-2	7.205661E-2	2.655919E-2
10/19/2017  17:20:17.249055	-3.903912E+0	2.591253E-2	1.646291E-2	-1.014905E+1	2.222863E-2	2.709402E-2	7.714242E-2	2.401527E-2
								
10/19/2017  17:20:17.250055	-3.494650E+0	1.573716E-2	2.155331E-2	-1.014396E+1	2.477858E-2	1.183011E-2	7.968532E-2	2.910311E-2
10/19/2017  17:20:17.251055	-1.026370E+0	4.741205E-4	1.900811E-2	-1.013632E+1	2.477858E-2	1.946206E-2	7.714242E-2	2.910311E-2
10/19/2017  17:20:17.252055	1.464787E+0	8.105642E-3	2.155331E-2	-1.012869E+1	2.477858E-2	2.455003E-2	7.459952E-2	3.927877E-2
10/19/2017  17:20:17.253055	1.281764E+0	2.082484E-2	1.391770E-2	-1.012869E+1	2.987847E-2	2.200605E-2	6.951371E-2	3.164702E-2
10/19/2017  17:20:17.254055	1.586803E+0	2.082484E-2	1.137250E-2	-1.014142E+1	2.987847E-2	1.946206E-2	7.205661E-2	2.147136E-2
10/19/2017  17:20:17.255055	1.406322E+0	1.319332E-2	1.900811E-2	-1.014905E+1	2.222863E-2	2.963800E-2	7.459952E-2	3.164702E-2
10/19/2017  17:20:17.256055	4.098584E-1	1.319332E-2	2.664372E-2	-1.013887E+1	1.967868E-2	1.946206E-2	8.222822E-2	3.419094E-2
10/19/2017  17:20:17.257055	6.615162E-1	-7.157401E-3	1.900811E-2	-1.012869E+1	1.967868E-2	1.437409E-2	7.459952E-2	3.419094E-2
10/19/2017  17:20:17.258055	3.285145E-1	8.105642E-3	1.646291E-2	-1.012869E+1	2.987847E-2	1.437409E-2	6.951371E-2	3.673486E-2
10/19/2017  17:20:17.259055	7.937001E-1	1.573716E-2	1.391770E-2	-1.012869E+1	4.772811E-2	2.200605E-2	7.714242E-2	3.927877E-2
10/19/2017  17:20:17.260055	7.250661E-1	1.828100E-2	1.646291E-2	-1.015160E+1	2.222863E-2	1.946206E-2	7.714242E-2	2.655919E-2
10/19/2017  17:20:17.261055	7.454021E-1	1.064948E-2	2.664372E-2	-1.013378E+1	9.478889E-3	2.200605E-2	7.968532E-2	3.419094E-2
10/19/2017  17:20:17.262055	2.354487E+0	5.561801E-3	3.173413E-2	-1.012105E+1	1.712873E-2	9.286120E-3	8.222822E-2	3.927877E-2
10/19/2017  17:20:17.263055	8.928380E-1	8.105642E-3	1.391770E-2	-1.012614E+1	1.967868E-2	1.437409E-2	6.188501E-2	3.927877E-2
10/19/2017  17:20:17.264055	-3.395512E+0	1.828100E-2	8.827299E-3	-1.014651E+1	2.732853E-2	1.946206E-2	7.205661E-2	3.164702E-2
10/19/2017  17:20:17.265055	-4.198783E+0	2.591253E-2	1.646291E-2	-1.015415E+1	1.967868E-2	2.455003E-2	7.714242E-2	2.401527E-2
10/19/2017  17:20:17.266055	-3.244919E-2	1.573716E-2	2.664372E-2	-1.015669E+1	2.222863E-2	1.946206E-2	7.205661E-2	2.910311E-2
10/19/2017  17:20:17.267055	1.380902E+0	1.064948E-2	1.900811E-2	-1.013632E+1	2.222863E-2	2.200605E-2	7.714242E-2	4.691052E-2
10/19/2017  17:20:17.268055	1.022767E-1	1.064948E-2	1.900811E-2	-1.011596E+1	2.222863E-2	2.455003E-2	8.222822E-2	3.164702E-2
10/19/2017  17:20:17.269055	1.617307E+0	1.828100E-2	1.391770E-2	-1.013632E+1	2.987847E-2	2.455003E-2	6.951371E-2	1.383961E-2
10/19/2017  17:20:17.270055	3.963571E+0	1.573716E-2	1.900811E-2	-1.015924E+1	2.222863E-2	1.691808E-2	8.731403E-2	2.655919E-2
10/19/2017  17:20:17.271055	3.091666E+0	1.828100E-2	2.918892E-2	-1.013378E+1	1.457878E-2	2.455003E-2	7.714242E-2	3.419094E-2
10/19/2017  17:20:17.272055	-2.635455E+0	1.319332E-2	1.900811E-2	-1.013887E+1	2.222863E-2	2.455003E-2	6.697081E-2	3.927877E-2
10/19/2017  17:20:17.273055	-3.166732E+0	8.105642E-3	1.391770E-2	-1.013632E+1	2.222863E-2	1.437409E-2	7.459952E-2	3.927877E-2
10/19/2017  17:20:17.274055	-1.509350E+0	1.828100E-2	1.391770E-2	-1.014142E+1	2.987847E-2	2.200605E-2	8.222822E-2	2.401527E-2
10/19/2017  17:20:17.275055	3.742704E-1	2.845637E-2	1.391770E-2	-1.014142E+1	2.477858E-2	1.946206E-2	7.714242E-2	2.910311E-2
10/19/2017  17:20:17.276055	2.481587E+0	1.319332E-2	1.900811E-2	-1.013378E+1	1.967868E-2	1.946206E-2	7.714242E-2	3.673486E-2
10/19/2017  17:20:17.277055	3.007780E+0	1.319332E-2	3.936974E-2	-1.012869E+1	2.477858E-2	1.691808E-2	7.459952E-2	4.182269E-2
10/19/2017  17:20:17.278055	1.711361E+0	1.064948E-2	1.900811E-2	-1.011850E+1	2.732853E-2	1.946206E-2	7.714242E-2	3.164702E-2
10/19/2017  17:20:17.279055	1.068236E+0	1.828100E-2	1.137250E-2	-1.013123E+1	1.712873E-2	1.437409E-2	7.205661E-2	2.910311E-2
10/19/2017  17:20:17.280055	-4.290008E-1	2.336868E-2	1.646291E-2	-1.013632E+1	2.987847E-2	2.963800E-2	7.968532E-2	3.164702E-2
10/19/2017  17:20:17.281055	-1.865230E+0	1.319332E-2	8.827299E-3	-1.014142E+1	1.712873E-2	1.691808E-2	8.222822E-2	3.164702E-2
10/19/2017  17:20:17.282055	-1.031454E+0	4.741205E-4	1.900811E-2	-1.013887E+1	1.967868E-2	1.183011E-2	7.459952E-2	3.419094E-2
								
10/19/2017  17:20:17.283055	-1.008576E+0	1.064948E-2	1.391770E-2	-1.013632E+1	2.987847E-2	3.726996E-2	7.205661E-2	2.910311E-2
10/19/2017  17:20:17.284055	-1.552564E+0	3.100021E-2	1.646291E-2	-1.014651E+1	1.967868E-2	1.946206E-2	7.968532E-2	2.147136E-2
10/19/2017  17:20:17.285055	-2.058421E+0	1.319332E-2	1.646291E-2	-1.014142E+1	2.222863E-2	1.183011E-2	7.459952E-2	2.655919E-2
10/19/2017  17:20:17.286055	-2.538859E+0	4.741205E-4	1.900811E-2	-1.014905E+1	1.202884E-2	2.455003E-2	7.968532E-2	3.164702E-2
10/19/2017  17:20:17.287055	-2.134681E+0	8.105642E-3	1.900811E-2	-1.012869E+1	2.732853E-2	1.691808E-2	7.968532E-2	4.182269E-2
10/19/2017  17:20:17.288055	-1.117882E+0	5.561801E-3	1.137250E-2	-1.012359E+1	2.222863E-2	1.946206E-2	6.697081E-2	2.910311E-2
10/19/2017  17:20:17.289055	5.471263E-1	2.082484E-2	8.827299E-3	-1.013632E+1	2.732853E-2	2.709402E-2	6.951371E-2	2.910311E-2
10/19/2017  17:20:17.290055	1.533421E+0	1.828100E-2	2.409852E-2	-1.014142E+1	1.202884E-2	2.709402E-2	8.731403E-2	2.910311E-2
10/19/2017  17:20:17.291055	-5.205127E-1	1.573716E-2	2.409852E-2	-1.014651E+1	1.712873E-2	1.946206E-2	8.222822E-2	3.164702E-2
10/19/2017  17:20:17.292055	-1.300906E+0	1.319332E-2	2.155331E-2	-1.013887E+1	2.732853E-2	2.200605E-2	7.459952E-2	4.691052E-2
10/19/2017  17:20:17.293055	2.522258E+0	1.319332E-2	1.646291E-2	-1.013887E+1	1.967868E-2	1.946206E-2	7.968532E-2	2.910311E-2
10/19/2017  17:20:17.294055	2.092661E+0	1.319332E-2	8.827299E-3	-1.013632E+1	9.478889E-3	1.946206E-2	7.205661E-2	2.910311E-2
10/19/2017  17:20:17.295055	-2.106719E+0	1.319332E-2	1.391770E-2	-1.014142E+1	2.222863E-2	1.691808E-2	7.968532E-2	2.910311E-2
10/19/2017  17:20:17.296055	-4.941047E+0	1.064948E-2	2.155331E-2	-1.015160E+1	2.222863E-2	1.946206E-2	7.714242E-2	4.182269E-2
10/19/2017  17:20:17.297055	-4.951215E+0	1.573716E-2	2.409852E-2	-1.015415E+1	1.457878E-2	1.946206E-2	8.222822E-2	3.164702E-2
10/19/2017  17:20:17.298055	-4.933421E+0	5.561801E-3	2.409852E-2	-1.015415E+1	1.967868E-2	1.946206E-2	7.459952E-2	2.655919E-2
10/19/2017  17:20:17.299055	2.120623E+0	8.105642E-3	1.900811E-2	-1.011086E+1	2.222863E-2	1.946206E-2	7.968532E-2	3.164702E-2
10/19/2017  17:20:17.300055	3.030658E+0	1.064948E-2	1.191689E-3	-1.013632E+1	2.732853E-2	1.946206E-2	6.951371E-2	2.910311E-2
10/19/2017  17:20:17.301055	1.065694E+0	1.319332E-2	1.900811E-2	-1.014142E+1	2.222863E-2	1.946206E-2	7.968532E-2	2.910311E-2
10/19/2017  17:20:17.302055	4.049999E+0	1.319332E-2	2.155331E-2	-1.013887E+1	2.222863E-2	1.946206E-2	7.459952E-2	3.419094E-2
10/19/2017  17:20:17.303055	4.982912E+0	1.828100E-2	2.409852E-2	-1.012869E+1	1.967868E-2	2.709402E-2	9.239983E-2	3.164702E-2
10/19/2017  17:20:17.304055	5.008332E+0	4.741205E-4	1.137250E-2	-1.012869E+1	1.457878E-2	9.286120E-3	7.459952E-2	3.673486E-2
10/19/2017  17:20:17.305055	5.015958E+0	5.561801E-3	1.137250E-2	-1.012105E+1	2.477858E-2	1.437409E-2	7.968532E-2	3.419094E-2
10/19/2017  17:20:17.306055	4.375375E+0	1.064948E-2	1.646291E-2	-1.013123E+1	3.242842E-2	2.455003E-2	7.459952E-2	2.401527E-2
10/19/2017  17:20:17.307055	-4.163195E+0	2.591253E-2	1.900811E-2	-1.015924E+1	1.967868E-2	2.709402E-2	7.205661E-2	2.655919E-2
10/19/2017  17:20:17.308055	-4.941047E+0	2.082484E-2	4.191494E-2	-1.015669E+1	1.712873E-2	2.963800E-2	8.477112E-2	3.419094E-2
10/19/2017  17:20:17.309055	-3.761560E+0	3.017961E-3	2.409852E-2	-1.015160E+1	1.967868E-2	2.200605E-2	7.714242E-2	3.419094E-2
10/19/2017  17:20:17.310055	-3.321794E+0	8.105642E-3	8.827299E-3	-1.013887E+1	2.222863E-2	4.198150E-3	7.714242E-2	3.419094E-2
10/19/2017  17:20:17.311055	8.953800E-1	1.828100E-2	1.900811E-2	-1.013887E+1	1.712873E-2	1.946206E-2	7.968532E-2	3.673486E-2
10/19/2017  17:20:17.312055	3.061162E+0	1.319332E-2	1.646291E-2	-1.013123E+1	2.732853E-2	3.726996E-2	7.205661E-2	3.927877E-2
10/19/2017  17:20:17.313055	2.989986E+0	2.336868E-2	1.900811E-2	-1.013887E+1	1.457878E-2	2.963800E-2	7.205661E-2	2.655919E-2
10/19/2017  17:20:17.314055	4.283863E+0	1.319332E-2	1.646291E-2	-1.012869E+1	2.222863E-2	3.726996E-2	7.459952E-2	3.673486E-2
10/19/2017  17:20:17.315055	3.935609E+0	2.082484E-2	2.664372E-2	-1.013378E+1	1.967868E-2	1.946206E-2	8.222822E-2	2.910311E-2
								
10/19/2017  17:20:17.316055	-2.434350E-1	5.561801E-3	1.646291E-2	-1.012869E+1	1.967868E-2	4.198150E-3	7.714242E-2	3.927877E-2
10/19/2017  17:20:17.317055	-2.978625E+0	2.336868E-2	2.155331E-2	-1.015160E+1	1.457878E-2	1.946206E-2	7.205661E-2	3.673486E-2
10/19/2017  17:20:17.318055	-3.189610E+0	1.573716E-2	1.646291E-2	-1.014142E+1	1.967868E-2	1.946206E-2	7.714242E-2	3.164702E-2
10/19/2017  17:20:17.319055	2.499381E+0	1.828100E-2	1.900811E-2	-1.014142E+1	1.712873E-2	2.455003E-2	7.459952E-2	1.892744E-2
10/19/2017  17:20:17.320055	2.443457E+0	2.082484E-2	2.664372E-2	-1.014905E+1	1.967868E-2	2.455003E-2	8.477112E-2	2.655919E-2
10/19/2017  17:20:17.321055	6.615162E-1	1.319332E-2	2.664372E-2	-1.012614E+1	2.222863E-2	1.946206E-2	8.731403E-2	3.927877E-2
10/19/2017  17:20:17.322055	1.858797E+0	1.573716E-2	1.646291E-2	-1.013378E+1	2.477858E-2	2.200605E-2	7.968532E-2	3.673486E-2
10/19/2017  17:20:17.323055	4.543147E+0	1.064948E-2	1.391770E-2	-1.012614E+1	4.007827E-2	1.437409E-2	7.459952E-2	3.927877E-2
10/19/2017  17:20:17.324055	2.542594E+0	1.828100E-2	1.137250E-2	-1.011850E+1	2.477858E-2	2.455003E-2	7.205661E-2	3.419094E-2
10/19/2017  17:20:17.325055	1.314810E+0	2.082484E-2	1.391770E-2	-1.014142E+1	2.477858E-2	2.455003E-2	8.731403E-2	2.655919E-2
10/19/2017  17:20:17.326055	3.254354E+0	1.573716E-2	1.391770E-2	-1.014651E+1	1.457878E-2	1.691808E-2	8.731403E-2	3.164702E-2
10/19/2017  17:20:17.327055	3.480592E+0	1.064948E-2	2.409852E-2	-1.012614E+1	2.477858E-2	1.437409E-2	7.968532E-2	5.708619E-2
10/19/2017  17:20:17.328055	-1.984703E+0	8.105642E-3	1.137250E-2	-1.011596E+1	2.477858E-2	1.691808E-2	6.697081E-2	3.164702E-2
10/19/2017  17:20:17.329055	-4.941047E+0	1.064948E-2	6.282096E-3	-1.014905E+1	2.222863E-2	1.691808E-2	7.205661E-2	2.401527E-2
10/19/2017  17:20:17.330055	-4.938505E+0	1.828100E-2	1.137250E-2	-1.016178E+1	2.477858E-2	2.709402E-2	7.968532E-2	2.401527E-2
10/19/2017  17:20:17.331055	-1.067042E+0	1.319332E-2	1.391770E-2	-1.014142E+1	2.477858E-2	1.437409E-2	7.459952E-2	2.147136E-2
10/19/2017  17:20:17.332055	2.486671E+0	1.064948E-2	2.409852E-2	-1.014651E+1	1.457878E-2	1.691808E-2	8.222822E-2	2.910311E-2
10/19/2017  17:20:17.333055	7.657381E-1	1.064948E-2	3.173413E-2	-1.012614E+1	1.202884E-2	1.437409E-2	8.222822E-2	4.182269E-2
10/19/2017  17:20:17.334055	-3.001503E+0	8.105642E-3	1.137250E-2	-1.013378E+1	2.222863E-2	1.183011E-2	5.934210E-2	3.673486E-2
10/19/2017  17:20:17.335055	-2.035543E+0	5.561801E-3	1.191689E-3	-1.014142E+1	2.477858E-2	1.691808E-2	7.205661E-2	2.910311E-2
10/19/2017  17:20:17.336055	-2.866777E+0	2.591253E-2	1.900811E-2	-1.015160E+1	2.732853E-2	2.455003E-2	8.222822E-2	2.655919E-2
10/19/2017  17:20:17.337055	-1.483930E+0	2.336868E-2	2.918892E-2	-1.014396E+1	1.457878E-2	3.218199E-2	8.222822E-2	3.164702E-2
10/19/2017  17:20:17.338055	-3.705636E+0	5.561801E-3	2.664372E-2	-1.014651E+1	1.457878E-2	2.200605E-2	7.714242E-2	3.164702E-2
10/19/2017  17:20:17.339055	-2.073673E+0	1.064948E-2	3.173413E-2	-1.013378E+1	2.222863E-2	1.946206E-2	7.968532E-2	4.182269E-2
10/19/2017  17:20:17.340055	1.772369E+0	1.573716E-2	1.391770E-2	-1.012869E+1	2.477858E-2	1.183011E-2	7.205661E-2	3.164702E-2
10/19/2017  17:20:17.341055	2.148585E+0	2.336868E-2	1.137250E-2	-1.013378E+1	3.242842E-2	9.286120E-3	6.951371E-2	3.673486E-2
10/19/2017  17:20:17.342055	2.529884E+0	2.082484E-2	1.900811E-2	-1.013123E+1	2.222863E-2	2.709402E-2	8.222822E-2	2.910311E-2
10/19/2017  17:20:17.343055	2.016401E+0	1.573716E-2	2.664372E-2	-1.013378E+1	1.457878E-2	6.742135E-3	7.968532E-2	3.673486E-2
10/19/2017  17:20:17.344055	2.479045E+0	4.741205E-4	1.900811E-2	-1.013123E+1	1.712873E-2	1.437409E-2	7.459952E-2	3.673486E-2
10/19/2017  17:20:17.345055	-2.543943E+0	1.573716E-2	1.137250E-2	-1.014651E+1	2.732853E-2	9.286120E-3	6.951371E-2	2.910311E-2
10/19/2017  17:20:17.346055	-3.342130E+0	3.354405E-2	1.900811E-2	-1.013887E+1	2.987847E-2	2.709402E-2	7.968532E-2	3.164702E-2
10/19/2017  17:20:17.347055	-4.264588E-1	2.082484E-2	2.409852E-2	-1.014905E+1	1.712873E-2	2.455003E-2	8.477112E-2	2.655919E-2
10/19/2017  17:20:17.348055	4.174844E-1	1.828100E-2	2.664372E-2	-1.012869E+1	1.457878E-2	1.691808E-2	8.222822E-2	3.927877E-2
								
10/19/2017  17:20:17.349055	-3.501989E-1	1.064948E-2	1.646291E-2	-1.012105E+1	2.732853E-2	1.691808E-2	6.951371E-2	3.673486E-2
10/19/2017  17:20:17.350055	-1.544651E-1	3.017961E-3	1.137250E-2	-1.015160E+1	2.477858E-2	1.946206E-2	7.205661E-2	2.401527E-2
10/19/2017  17:20:17.351055	5.191643E-1	2.591253E-2	1.137250E-2	-1.014396E+1	2.222863E-2	2.709402E-2	7.459952E-2	3.419094E-2
10/19/2017  17:20:17.352055	1.530879E+0	1.828100E-2	2.664372E-2	-1.013378E+1	2.987847E-2	1.946206E-2	8.731403E-2	3.927877E-2
10/19/2017  17:20:17.353055	1.802873E+0	1.064948E-2	3.173413E-2	-1.013123E+1	1.457878E-2	1.183011E-2	8.477112E-2	3.927877E-2
10/19/2017  17:20:17.354055	1.894385E+0	5.561801E-3	1.137250E-2	-1.012614E+1	1.967868E-2	1.183011E-2	6.951371E-2	2.910311E-2
10/19/2017  17:20:17.355055	-1.544651E-1	1.573716E-2	1.646291E-2	-1.012869E+1	2.477858E-2	2.200605E-2	7.205661E-2	2.655919E-2
10/19/2017  17:20:17.356055	-5.866047E-1	2.082484E-2	1.900811E-2	-1.014651E+1	1.457878E-2	2.455003E-2	7.714242E-2	1.892744E-2
10/19/2017  17:20:17.357055	-7.772545E-1	1.573716E-2	1.391770E-2	-1.012614E+1	2.222863E-2	2.455003E-2	7.459952E-2	2.401527E-2
10/19/2017  17:20:17.358055	-1.433090E+0	1.319332E-2	2.918892E-2	-1.012614E+1	1.457878E-2	1.946206E-2	8.477112E-2	3.927877E-2
10/19/2017  17:20:17.359055	-2.602409E+0	5.561801E-3	1.900811E-2	-1.012869E+1	1.967868E-2	1.946206E-2	7.205661E-2	3.927877E-2
10/19/2017  17:20:17.360055	-3.743766E+0	1.319332E-2	8.827299E-3	-1.014142E+1	2.477858E-2	1.946206E-2	6.951371E-2	2.147136E-2
10/19/2017  17:20:17.361055	-1.758466E+0	1.573716E-2	1.900811E-2	-1.015669E+1	2.222863E-2	1.437409E-2	8.222822E-2	2.910311E-2
10/19/2017  17:20:17.362055	3.752585E+0	1.573716E-2	2.155331E-2	-1.013378E+1	2.222863E-2	1.691808E-2	7.714242E-2	3.164702E-2
10/19/2017  17:20:17.363055	3.539058E+0	1.319332E-2	2.664372E-2	-1.012614E+1	9.478889E-3	1.183011E-2	7.714242E-2	3.164702E-2
10/19/2017  17:20:17.364055	-1.222104E+0	8.105642E-3	2.664372E-2	-1.012869E+1	1.967868E-2	1.691808E-2	7.459952E-2	4.182269E-2
10/19/2017  17:20:17.365055	-3.080304E+0	1.064948E-2	1.137250E-2	-1.014396E+1	2.732853E-2	1.946206E-2	5.934210E-2	2.147136E-2
10/19/2017  17:20:17.366055	-3.886118E+0	1.828100E-2	1.391770E-2	-1.014651E+1	1.967868E-2	1.437409E-2	7.714242E-2	2.401527E-2
10/19/2017  17:20:17.367055	3.099292E+0	2.082484E-2	2.155331E-2	-1.013378E+1	2.477858E-2	2.709402E-2	7.205661E-2	3.164702E-2
10/19/2017  17:20:17.368055	4.982912E+0	1.828100E-2	3.936974E-2	-1.013378E+1	2.477858E-2	2.709402E-2	7.968532E-2	3.419094E-2
10/19/2017  17:20:17.369055	7.555701E-1	5.561801E-3	1.900811E-2	-1.012614E+1	1.967868E-2	1.691808E-2	7.459952E-2	3.927877E-2
10/19/2017  17:20:17.370055	-7.009946E-1	8.105642E-3	1.137250E-2	-1.013123E+1	2.477858E-2	1.654165E-3	7.205661E-2	3.673486E-2
10/19/2017  17:20:17.371055	-6.450706E-1	1.828100E-2	1.391770E-2	-1.013887E+1	3.242842E-2	1.946206E-2	6.951371E-2	2.401527E-2
10/19/2017  17:20:17.372055	-6.145667E-1	2.082484E-2	8.827299E-3	-1.014905E+1	2.222863E-2	1.691808E-2	7.714242E-2	2.655919E-2
10/19/2017  17:20:17.373055	-2.663130E-1	2.336868E-2	1.900811E-2	-1.014651E+1	2.222863E-2	1.946206E-2	7.459952E-2	3.164702E-2
10/19/2017  17:20:17.374055	1.482581E+0	1.319332E-2	2.664372E-2	-1.013632E+1	2.987847E-2	3.981394E-2	7.459952E-2	3.164702E-2
10/19/2017  17:20:17.375055	9.970599E-1	-2.069720E-3	1.646291E-2	-1.012105E+1	1.712873E-2	1.691808E-2	7.714242E-2	2.910311E-2
10/19/2017  17:20:17.376055	-1.069584E+0	8.105642E-3	1.391770E-2	-1.013632E+1	2.987847E-2	-3.433805E-3	6.951371E-2	2.910311E-2
10/19/2017  17:20:17.377055	-4.391688E-1	3.100021E-2	1.137250E-2	-1.013887E+1	3.497837E-2	1.946206E-2	7.205661E-2	3.673486E-2
10/19/2017  17:20:17.378055	-8.535144E-1	2.082484E-2	1.900811E-2	-1.014651E+1	2.222863E-2	2.709402E-2	7.459952E-2	2.910311E-2
10/19/2017  17:20:17.379055	-8.484305E-1	1.828100E-2	2.664372E-2	-1.014651E+1	4.378993E-3	2.709402E-2	8.477112E-2	3.164702E-2
10/19/2017  17:20:17.380055	4.381074E-2	1.064948E-2	2.918892E-2	-1.013887E+1	1.457878E-2	1.946206E-2	8.477112E-2	3.927877E-2
10/19/2017  17:20:17.381055	-5.789787E-1	4.741205E-4	1.900811E-2	-1.012869E+1	1.457878E-2	1.691808E-2	7.459952E-2	3.419094E-2
								
10/19/2017  17:20:17.382055	1.531166E-1	5.561801E-3	1.137250E-2	-1.013887E+1	2.987847E-2	1.437409E-2	7.459952E-2	3.419094E-2
10/19/2017  17:20:17.383055	2.496839E+0	2.082484E-2	1.391770E-2	-1.014142E+1	4.262821E-2	2.200605E-2	6.951371E-2	2.401527E-2
10/19/2017  17:20:17.384055	3.322988E+0	2.082484E-2	2.664372E-2	-1.013632E+1	2.222863E-2	2.709402E-2	7.459952E-2	2.655919E-2
10/19/2017  17:20:17.385055	4.644827E+0	1.064948E-2	2.664372E-2	-1.013123E+1	1.829045E-3	1.946206E-2	7.459952E-2	4.436661E-2
10/19/2017  17:20:17.386055	3.147590E+0	1.319332E-2	1.900811E-2	-1.011341E+1	2.477858E-2	1.946206E-2	7.968532E-2	3.673486E-2
10/19/2017  17:20:17.387055	6.005082E-1	1.064948E-2	2.155331E-2	-1.012869E+1	2.732853E-2	1.437409E-2	6.951371E-2	5.199836E-2
10/19/2017  17:20:17.388055	3.513925E-1	1.319332E-2	8.827299E-3	-1.014651E+1	2.987847E-2	1.691808E-2	6.697081E-2	2.655919E-2
10/19/2017  17:20:17.389055	2.110455E+0	2.082484E-2	2.155331E-2	-1.013887E+1	2.477858E-2	2.709402E-2	7.714242E-2	3.673486E-2
10/19/2017  17:20:17.390055	6.081342E-1	1.319332E-2	2.664372E-2	-1.013887E+1	1.457878E-2	2.200605E-2	7.968532E-2	3.164702E-2
10/19/2017  17:20:17.391055	5.395003E-1	5.561801E-3	2.155331E-2	-1.012869E+1	1.967868E-2	1.183011E-2	7.459952E-2	2.910311E-2
10/19/2017  17:20:17.392055	9.258839E-1	1.064948E-2	1.137250E-2	-1.014905E+1	3.497837E-2	9.286120E-3	7.714242E-2	3.164702E-2
10/19/2017  17:20:17.393055	-8.179265E-1	1.828100E-2	1.900811E-2	-1.014651E+1	3.242842E-2	2.455003E-2	6.951371E-2	2.147136E-2
10/19/2017  17:20:17.394055	-1.244982E+0	1.573716E-2	1.900811E-2	-1.014651E+1	1.457878E-2	2.709402E-2	7.968532E-2	2.401527E-2
10/19/2017  17:20:17.395055	-2.221109E+0	1.319332E-2	2.409852E-2	-1.014142E+1	1.457878E-2	2.455003E-2	7.968532E-2	3.673486E-2
10/19/2017  17:20:17.396055	-2.185521E+0	1.064948E-2	1.900811E-2	-1.013378E+1	1.967868E-2	1.946206E-2	6.188501E-2	3.927877E-2
10/19/2017  17:20:17.397055	-2.551569E+0	8.105642E-3	1.137250E-2	-1.014142E+1	1.967868E-2	2.200605E-2	7.459952E-2	3.164702E-2
10/19/2017  17:20:17.398055	-9.196064E-1	1.828100E-2	1.900811E-2	-1.014396E+1	2.732853E-2	2.200605E-2	7.968532E-2	2.910311E-2
10/19/2017  17:20:17.399055	2.093276E-2	2.082484E-2	1.646291E-2	-1.014651E+1	2.732853E-2	2.200605E-2	7.714242E-2	2.655919E-2
10/19/2017  17:20:17.400055	4.759504E-1	1.319332E-2	2.664372E-2	-1.013887E+1	1.457878E-2	2.200605E-2	7.205661E-2	3.164702E-2
10/19/2017  17:20:17.401055	9.106320E-1	1.319332E-2	3.682453E-2	-1.013123E+1	2.477858E-2	1.691808E-2	7.459952E-2	2.910311E-2
10/19/2017  17:20:17.402055	-9.704463E-1	1.573716E-2	1.900811E-2	-1.013123E+1	2.477858E-2	1.946206E-2	7.459952E-2	2.910311E-2
10/19/2017  17:20:17.403055	1.769827E+0	1.319332E-2	6.282096E-3	-1.013887E+1	2.477858E-2	9.286120E-3	7.459952E-2	2.655919E-2
10/19/2017  17:20:17.404055	3.768124E-1	2.591253E-2	1.391770E-2	-1.013632E+1	2.477858E-2	2.455003E-2	7.205661E-2	2.655919E-2
10/19/2017  17:20:17.405055	-4.841909E+0	1.828100E-2	1.900811E-2	-1.015415E+1	2.477858E-2	3.726996E-2	7.714242E-2	3.164702E-2
10/19/2017  17:20:17.406055	-4.953757E+0	1.064948E-2	2.155331E-2	-1.015160E+1	1.712873E-2	2.200605E-2	8.222822E-2	3.419094E-2
10/19/2017  17:20:17.407055	-4.071684E+0	1.828100E-2	1.900811E-2	-1.014651E+1	2.477858E-2	1.946206E-2	7.205661E-2	2.401527E-2
10/19/2017  17:20:17.408055	-9.854113E-2	2.336868E-2	1.646291E-2	-1.013632E+1	2.477858E-2	1.946206E-2	7.968532E-2	2.910311E-2
10/19/2017  17:20:17.409055	4.944782E+0	1.573716E-2	8.827299E-3	-1.012869E+1	2.732853E-2	4.198150E-3	7.205661E-2	2.910311E-2
10/19/2017  17:20:17.410055	4.972744E+0	2.336868E-2	1.137250E-2	-1.013887E+1	1.967868E-2	2.709402E-2	6.697081E-2	3.164702E-2
10/19/2017  17:20:17.411055	-2.243987E+0	1.828100E-2	2.155331E-2	-1.013632E+1	1.967868E-2	2.709402E-2	7.714242E-2	3.164702E-2
10/19/2017  17:20:17.412055	-1.562732E+0	1.319332E-2	2.155331E-2	-1.014142E+1	9.478889E-3	1.946206E-2	8.222822E-2	2.655919E-2
10/19/2017  17:20:17.413055	-5.967727E-1	1.064948E-2	1.900811E-2	-1.013378E+1	1.967868E-2	1.691808E-2	8.222822E-2	3.673486E-2
10/19/2017  17:20:17.414055	5.852563E-1	1.064948E-2	1.646291E-2	-1.013123E+1	1.967868E-2	1.691808E-2	6.951371E-2	4.182269E-2
								
10/19/2017  17:20:17.415055	-1.128050E+0	1.064948E-2	1.137250E-2	-1.014651E+1	2.732853E-2	1.946206E-2	7.205661E-2	2.910311E-2
10/19/2017  17:20:17.416055	-4.010389E-1	2.082484E-2	2.155331E-2	-1.014396E+1	2.987847E-2	2.455003E-2	7.459952E-2	2.655919E-2
10/19/2017  17:20:17.417055	2.135875E+0	1.319332E-2	1.646291E-2	-1.013887E+1	2.222863E-2	2.455003E-2	8.222822E-2	3.164702E-2
10/19/2017  17:20:17.418055	1.724071E+0	1.319332E-2	1.900811E-2	-1.013632E+1	1.712873E-2	1.691808E-2	7.205661E-2	3.164702E-2
10/19/2017  17:20:17.419055	3.706829E+0	1.064948E-2	1.137250E-2	-1.012614E+1	2.222863E-2	1.437409E-2	7.714242E-2	3.927877E-2
10/19/2017  17:20:17.420055	2.537510E+0	1.828100E-2	2.155331E-2	-1.012869E+1	2.222863E-2	1.946206E-2	7.968532E-2	4.691052E-2
10/19/2017  17:20:17.421055	-1.163351E-1	1.573716E-2	1.137250E-2	-1.014142E+1	2.477858E-2	2.709402E-2	7.459952E-2	3.164702E-2
10/19/2017  17:20:17.422055	2.334151E+0	1.828100E-2	1.900811E-2	-1.014142E+1	1.967868E-2	2.963800E-2	7.714242E-2	2.910311E-2
10/19/2017  17:20:17.423055	6.386382E-1	2.082484E-2	2.155331E-2	-1.013123E+1	1.712873E-2	1.946206E-2	8.222822E-2	3.419094E-2
10/19/2017  17:20:17.424055	-4.313173E+0	1.828100E-2	2.155331E-2	-1.014651E+1	1.457878E-2	1.946206E-2	8.477112E-2	2.655919E-2
10/19/2017  17:20:17.425055	-3.786980E+0	1.064948E-2	2.155331E-2	-1.016433E+1	2.477858E-2	6.742135E-3	7.459952E-2	4.436661E-2
10/19/2017  17:20:17.426055	4.381074E-2	1.828100E-2	2.155331E-2	-1.014396E+1	3.242842E-2	2.455003E-2	7.459952E-2	3.419094E-2
10/19/2017  17:20:17.427055	-1.417551E-1	1.319332E-2	1.137250E-2	-1.013887E+1	2.987847E-2	2.709402E-2	6.951371E-2	2.655919E-2
10/19/2017  17:20:17.428055	-2.180437E+0	1.828100E-2	2.155331E-2	-1.014905E+1	1.202884E-2	1.946206E-2	8.222822E-2	3.419094E-2
10/19/2017  17:20:17.429055	6.414672E-2	1.064948E-2	2.664372E-2	-1.013378E+1	1.457878E-2	1.946206E-2	7.968532E-2	3.927877E-2
10/19/2017  17:20:17.430055	-1.285654E+0	2.082484E-2	3.736893E-3	-1.013123E+1	2.477858E-2	1.691808E-2	7.205661E-2	4.182269E-2
10/19/2017  17:20:17.431055	-1.811848E+0	2.591253E-2	1.137250E-2	-1.014651E+1	2.732853E-2	1.946206E-2	5.934210E-2	3.164702E-2
10/19/2017  17:20:17.432055	3.641025E-1	1.573716E-2	2.664372E-2	-1.014142E+1	1.457878E-2	2.455003E-2	7.459952E-2	3.419094E-2
10/19/2017  17:20:17.433055	1.131786E+0	1.828100E-2	1.900811E-2	-1.013887E+1	1.967868E-2	1.946206E-2	7.714242E-2	3.927877E-2
10/19/2017  17:20:17.434055	3.122170E+0	8.105642E-3	1.191689E-3	-1.012105E+1	1.457878E-2	1.654165E-3	7.205661E-2	3.164702E-2
10/19/2017  17:20:17.435055	3.539345E-1	8.105642E-3	1.900811E-2	-1.014396E+1	2.732853E-2	1.946206E-2	7.714242E-2	2.655919E-2
10/19/2017  17:20:17.436055	-2.177895E+0	1.319332E-2	2.155331E-2	-1.014651E+1	2.222863E-2	2.200605E-2	7.205661E-2	3.419094E-2
10/19/2017  17:20:17.437055	-1.971993E+0	1.573716E-2	1.900811E-2	-1.014142E+1	1.967868E-2	2.200605E-2	7.714242E-2	3.164702E-2
10/19/2017  17:20:17.438055	3.488505E-1	1.064948E-2	1.137250E-2	-1.013632E+1	2.987847E-2	4.198150E-3	7.459952E-2	3.164702E-2
10/19/2017  17:20:17.439055	1.225840E+0	1.319332E-2	1.137250E-2	-1.013123E+1	3.242842E-2	2.200605E-2	7.205661E-2	2.401527E-2
10/19/2017  17:20:17.440055	4.987996E+0	2.082484E-2	1.646291E-2	-1.013378E+1	1.712873E-2	1.691808E-2	8.731403E-2	3.419094E-2
10/19/2017  17:20:17.441055	1.917263E+0	1.064948E-2	2.409852E-2	-1.013123E+1	1.457878E-2	9.286120E-3	8.222822E-2	4.182269E-2
10/19/2017  17:20:17.442055	2.715450E+0	1.064948E-2	1.137250E-2	-1.012359E+1	2.222863E-2	1.437409E-2	7.714242E-2	3.927877E-2
10/19/2017  17:20:17.443055	1.269054E+0	1.573716E-2	1.900811E-2	-1.013887E+1	1.967868E-2	2.963800E-2	7.205661E-2	2.655919E-2
10/19/2017  17:20:17.444055	-1.186516E+0	2.336868E-2	1.900811E-2	-1.014905E+1	1.457878E-2	2.709402E-2	8.731403E-2	2.655919E-2
10/19/2017  17:20:17.445055	-2.302453E+0	1.573716E-2	2.664372E-2	-1.014396E+1	3.497837E-2	2.200605E-2	8.985693E-2	3.419094E-2
10/19/2017  17:20:17.446055	-2.338041E+0	8.105642E-3	1.137250E-2	-1.013887E+1	2.732853E-2	1.183011E-2	7.459952E-2	4.182269E-2
10/19/2017  17:20:17.447055	-1.478846E+0	1.319332E-2	1.391770E-2	-1.013887E+1	2.987847E-2	1.946206E-2	7.205661E-2	3.927877E-2
								
10/19/2017  17:20:17.448055	-1.743214E+0	1.828100E-2	2.409852E-2	-1.014142E+1	2.222863E-2	2.963800E-2	7.714242E-2	2.655919E-2
10/19/2017  17:20:17.449055	-2.218567E+0	1.319332E-2	2.409852E-2	-1.013378E+1	-7.209035E-4	1.183011E-2	8.222822E-2	2.147136E-2
10/19/2017  17:20:17.450055	-3.070136E+0	1.319332E-2	1.391770E-2	-1.014396E+1	2.477858E-2	1.183011E-2	8.222822E-2	3.927877E-2
10/19/2017  17:20:17.451055	-1.656786E+0	1.828100E-2	1.646291E-2	-1.014396E+1	2.732853E-2	1.946206E-2	7.205661E-2	2.147136E-2
10/19/2017  17:20:17.452055	-2.637710E-1	2.082484E-2	2.155331E-2	-1.013887E+1	1.967868E-2	2.963800E-2	7.205661E-2	2.910311E-2
10/19/2017  17:20:17.453055	3.455172E+0	1.319332E-2	2.155331E-2	-1.013123E+1	1.457878E-2	2.200605E-2	8.222822E-2	2.401527E-2
10/19/2017  17:20:17.454055	2.242926E-1	1.064948E-2	2.155331E-2	-1.011596E+1	1.967868E-2	2.200605E-2	8.222822E-2	3.927877E-2
10/19/2017  17:20:17.455055	2.011317E+0	1.319332E-2	1.900811E-2	-1.013887E+1	2.222863E-2	9.286120E-3	7.205661E-2	2.910311E-2
10/19/2017  17:20:17.456055	2.227387E+0	2.082484E-2	1.646291E-2	-1.014651E+1	2.222863E-2	1.691808E-2	8.477112E-2	2.401527E-2
10/19/2017  17:20:17.457055	6.589742E-1	2.336868E-2	2.155331E-2	-1.013632E+1	1.712873E-2	1.946206E-2	8.477112E-2	3.164702E-2
10/19/2017  17:20:17.458055	4.393169E+0	5.561801E-3	2.155331E-2	-1.013632E+1	2.477858E-2	1.183011E-2	6.697081E-2	3.927877E-2
10/19/2017  17:20:17.459055	5.013416E+0	3.017961E-3	1.391770E-2	-1.012869E+1	2.732853E-2	2.709402E-2	7.205661E-2	3.419094E-2
10/19/2017  17:20:17.460055	-1.735588E+0	2.591253E-2	1.900811E-2	-1.013887E+1	2.222863E-2	2.963800E-2	8.731403E-2	2.655919E-2
10/19/2017  17:20:17.461055	-4.905459E+0	2.336868E-2	2.664372E-2	-1.013887E+1	1.457878E-2	1.691808E-2	8.222822E-2	3.164702E-2
10/19/2017  17:20:17.462055	-3.766644E+0	8.105642E-3	1.900811E-2	-1.014651E+1	2.222863E-2	1.691808E-2	6.697081E-2	3.927877E-2
10/19/2017  17:20:17.463055	-1.768634E+0	1.064948E-2	2.664372E-2	-1.014142E+1	3.242842E-2	2.709402E-2	7.205661E-2	3.419094E-2
10/19/2017  17:20:17.464055	-1.239611E-1	1.573716E-2	1.646291E-2	-1.014651E+1	1.712873E-2	2.455003E-2	6.697081E-2	2.401527E-2
10/19/2017  17:20:17.465055	-1.849978E+0	1.573716E-2	3.173413E-2	-1.013887E+1	9.478889E-3	2.709402E-2	8.222822E-2	2.910311E-2
10/19/2017  17:20:17.466055	-2.826105E+0	1.319332E-2	1.646291E-2	-1.013887E+1	2.222863E-2	1.183011E-2	7.714242E-2	3.419094E-2
10/19/2017  17:20:17.467055	-1.684748E+0	1.319332E-2	1.391770E-2	-1.014651E+1	3.497837E-2	9.286120E-3	7.205661E-2	3.673486E-2
10/19/2017  17:20:17.468055	-1.557648E+0	1.064948E-2	1.900811E-2	-1.014905E+1	1.967868E-2	2.709402E-2	7.714242E-2	2.655919E-2
10/19/2017  17:20:17.469055	-4.976348E-1	1.319332E-2	2.918892E-2	-1.013632E+1	1.457878E-2	2.455003E-2	8.222822E-2	4.182269E-2
10/19/2017  17:20:17.470055	1.996065E+0	2.082484E-2	1.646291E-2	-1.012105E+1	2.477858E-2	1.437409E-2	7.714242E-2	3.673486E-2
10/19/2017  17:20:17.471055	5.003248E+0	1.573716E-2	1.137250E-2	-1.013123E+1	2.477858E-2	2.455003E-2	6.697081E-2	2.655919E-2
10/19/2017  17:20:17.472055	2.402785E+0	3.354405E-2	2.409852E-2	-1.013632E+1	2.477858E-2	2.963800E-2	8.477112E-2	3.164702E-2
10/19/2017  17:20:17.473055	1.431741E+0	1.064948E-2	2.664372E-2	-1.013632E+1	1.457878E-2	2.200605E-2	8.222822E-2	3.673486E-2
10/19/2017  17:20:17.474055	-1.961825E+0	-7.157401E-3	2.409852E-2	-1.013632E+1	1.457878E-2	1.183011E-2	7.714242E-2	3.673486E-2
10/19/2017  17:20:17.475055	-3.344672E+0	1.573716E-2	1.137250E-2	-1.013887E+1	2.987847E-2	2.200605E-2	7.459952E-2	3.164702E-2
10/19/2017  17:20:17.476055	-2.327873E+0	1.573716E-2	1.900811E-2	-1.014651E+1	3.497837E-2	2.455003E-2	7.968532E-2	2.910311E-2
10/19/2017  17:20:17.477055	4.149424E-1	1.064948E-2	2.409852E-2	-1.013123E+1	1.967868E-2	1.437409E-2	7.968532E-2	3.927877E-2
10/19/2017  17:20:17.478055	-7.820515E-2	1.064948E-2	2.155331E-2	-1.012614E+1	1.457878E-2	1.946206E-2	7.205661E-2	3.673486E-2
10/19/2017  17:20:17.479055	-1.161096E+0	1.319332E-2	1.900811E-2	-1.012359E+1	2.477858E-2	2.709402E-2	7.205661E-2	2.655919E-2
10/19/2017  17:20:17.480055	1.007228E+0	1.828100E-2	1.646291E-2	-1.013887E+1	9.478889E-3	2.709402E-2	7.459952E-2	3.164702E-2
								
10/19/2017  17:20:17.481055	1.251260E+0	1.573716E-2	1.900811E-2	-1.013378E+1	1.457878E-2	1.691808E-2	8.731403E-2	3.927877E-2
10/19/2017  17:20:17.482055	1.291932E+0	1.319332E-2	1.137250E-2	-1.013378E+1	1.967868E-2	1.946206E-2	7.968532E-2	2.147136E-2
10/19/2017  17:20:17.483055	1.419031E+0	2.336868E-2	1.900811E-2	-1.015415E+1	2.732853E-2	2.200605E-2	6.697081E-2	2.401527E-2
10/19/2017  17:20:17.484055	1.657979E+0	1.828100E-2	2.155331E-2	-1.014651E+1	2.222863E-2	2.709402E-2	7.714242E-2	2.147136E-2
10/19/2017  17:20:17.485055	1.650353E+0	8.105642E-3	2.664372E-2	-1.011596E+1	1.457878E-2	2.200605E-2	8.731403E-2	3.927877E-2
10/19/2017  17:20:17.486055	-3.629089E-1	1.064948E-2	1.900811E-2	-1.013378E+1	2.732853E-2	1.183011E-2	7.205661E-2	3.673486E-2
10/19/2017  17:20:17.487055	-1.428006E+0	1.064948E-2	1.646291E-2	-1.014396E+1	2.987847E-2	2.963800E-2	6.188501E-2	2.910311E-2
10/19/2017  17:20:17.488055	-1.331410E+0	2.336868E-2	2.409852E-2	-1.014905E+1	2.732853E-2	3.472597E-2	8.222822E-2	2.655919E-2
10/19/2017  17:20:17.489055	-9.068964E-1	1.573716E-2	2.409852E-2	-1.014905E+1	1.202884E-2	1.946206E-2	7.459952E-2	3.927877E-2
10/19/2017  17:20:17.490055	-3.400309E-1	3.017961E-3	2.155331E-2	-1.013887E+1	1.712873E-2	1.691808E-2	7.459952E-2	3.164702E-2
10/19/2017  17:20:17.491055	-2.002210E-1	1.573716E-2	1.137250E-2	-1.013632E+1	2.732853E-2	1.946206E-2	7.968532E-2	2.655919E-2
10/19/2017  17:20:17.492055	-2.177895E+0	2.845637E-2	1.391770E-2	-1.014651E+1	2.222863E-2	2.200605E-2	7.459952E-2	2.401527E-2
10/19/2017  17:20:17.493055	1.121618E+0	1.064948E-2	2.664372E-2	-1.014142E+1	1.202884E-2	1.691808E-2	7.205661E-2	4.182269E-2
10/19/2017  17:20:17.494055	2.268059E+0	1.064948E-2	1.900811E-2	-1.013632E+1	2.222863E-2	1.946206E-2	7.459952E-2	3.673486E-2
10/19/2017  17:20:17.495055	-1.290451E-1	1.319332E-2	1.391770E-2	-1.012869E+1	2.477858E-2	2.963800E-2	7.205661E-2	2.401527E-2
10/19/2017  17:20:17.496055	-9.854113E-2	2.336868E-2	2.155331E-2	-1.014142E+1	1.712873E-2	1.437409E-2	7.205661E-2	2.147136E-2
10/19/2017  17:20:17.497055	2.855260E+0	8.105642E-3	2.664372E-2	-1.013123E+1	1.712873E-2	9.286120E-3	8.477112E-2	3.673486E-2
10/19/2017  17:20:17.498055	3.775463E+0	8.105642E-3	1.191689E-3	-1.012359E+1	2.477858E-2	1.183011E-2	7.205661E-2	4.182269E-2
10/19/2017  17:20:17.499055	4.998164E+0	1.064948E-2	1.391770E-2	-1.013378E+1	2.477858E-2	1.946206E-2	7.714242E-2	3.164702E-2
10/19/2017  17:20:17.500055	1.886759E+0	2.336868E-2	1.900811E-2	-1.013632E+1	1.967868E-2	2.455003E-2	7.968532E-2	3.419094E-2
10/19/2017  17:20:17.501055	3.816135E+0	2.336868E-2	1.900811E-2	-1.012869E+1	1.967868E-2	1.691808E-2	7.459952E-2	3.164702E-2
10/19/2017  17:20:17.502055	4.952408E+0	8.105642E-3	1.646291E-2	-1.013123E+1	1.967868E-2	6.742135E-3	7.459952E-2	2.910311E-2
10/19/2017  17:20:17.503055	-1.067042E+0	2.082484E-2	1.391770E-2	-1.013378E+1	3.497837E-2	1.946206E-2	7.205661E-2	3.673486E-2
10/19/2017  17:20:17.504055	3.976281E+0	2.591253E-2	1.900811E-2	-1.013887E+1	2.477858E-2	2.709402E-2	7.714242E-2	3.164702E-2
10/19/2017  17:20:17.505055	-4.587709E+0	5.561801E-3	1.137250E-2	-1.014905E+1	1.202884E-2	2.200605E-2	7.968532E-2	3.164702E-2
10/19/2017  17:20:17.506055	1.543589E+0	1.828100E-2	1.900811E-2	-1.013378E+1	2.222863E-2	2.200605E-2	7.459952E-2	4.182269E-2
10/19/2017  17:20:17.507055	4.588903E+0	3.017961E-3	1.646291E-2	-1.013887E+1	2.987847E-2	2.200605E-2	8.477112E-2	3.164702E-2
10/19/2017  17:20:17.508055	-3.654509E-1	1.828100E-2	1.646291E-2	-1.013632E+1	2.477858E-2	1.946206E-2	7.968532E-2	3.164702E-2
10/19/2017  17:20:17.509055	-4.956299E+0	1.573716E-2	2.155331E-2	-1.014651E+1	1.712873E-2	1.946206E-2	7.205661E-2	3.673486E-2
10/19/2017  17:20:17.510055	-4.933421E+0	1.319332E-2	3.173413E-2	-1.014142E+1	2.477858E-2	2.709402E-2	7.459952E-2	3.164702E-2
10/19/2017  17:20:17.511055	-1.463594E+0	1.573716E-2	1.646291E-2	-1.014651E+1	1.967868E-2	1.437409E-2	7.205661E-2	3.164702E-2
10/19/2017  17:20:17.512055	-1.976790E-1	1.573716E-2	1.137250E-2	-1.013887E+1	2.477858E-2	2.200605E-2	7.459952E-2	3.164702E-2
10/19/2017  17:20:17.513055	2.344606E-1	2.336868E-2	1.646291E-2	-1.013887E+1	2.987847E-2	2.963800E-2	6.951371E-2	3.164702E-2
								
10/19/2017  17:20:17.514055	1.302387E-1	2.082484E-2	1.900811E-2	-1.015160E+1	2.222863E-2	1.946206E-2	7.205661E-2	3.419094E-2
10/19/2017  17:20:17.515055	-3.644628E+0	1.064948E-2	2.918892E-2	-1.014651E+1	2.477858E-2	1.946206E-2	8.731403E-2	4.436661E-2
10/19/2017  17:20:17.516055	1.632559E+0	5.561801E-3	1.900811E-2	-1.011596E+1	2.222863E-2	1.946206E-2	7.459952E-2	3.164702E-2
10/19/2017  17:20:17.517055	1.314810E+0	1.319332E-2	1.137250E-2	-1.013123E+1	2.732853E-2	1.946206E-2	7.205661E-2	1.892744E-2
10/19/2017  17:20:17.518055	-2.935411E+0	2.336868E-2	1.391770E-2	-1.013123E+1	2.732853E-2	9.286120E-3	8.222822E-2	3.164702E-2
10/19/2017  17:20:17.519055	-4.933421E+0	2.591253E-2	2.155331E-2	-1.015669E+1	2.477858E-2	2.963800E-2	7.968532E-2	2.655919E-2
10/19/2017  17:20:17.520055	-4.508907E+0	2.082484E-2	2.664372E-2	-1.015415E+1	1.712873E-2	3.218199E-2	7.205661E-2	3.164702E-2
10/19/2017  17:20:17.521055	-1.516976E+0	1.319332E-2	1.646291E-2	-1.013632E+1	1.202884E-2	1.946206E-2	8.222822E-2	4.182269E-2
10/19/2017  17:20:17.522055	-3.552829E-1	1.064948E-2	1.900811E-2	-1.013378E+1	2.222863E-2	1.946206E-2	7.968532E-2	3.673486E-2
10/19/2017  17:20:17.523055	9.973469E-2	1.319332E-2	1.137250E-2	-1.013632E+1	2.477858E-2	2.200605E-2	7.968532E-2	3.419094E-2
10/19/2017  17:20:17.524055	4.835763E-1	1.828100E-2	1.137250E-2	-1.014396E+1	2.732853E-2	2.200605E-2	7.205661E-2	3.673486E-2
10/19/2017  17:20:17.525055	1.297016E+0	2.082484E-2	3.173413E-2	-1.014651E+1	2.987847E-2	2.963800E-2	7.714242E-2	2.910311E-2
10/19/2017  17:20:17.526055	-1.140760E+0	2.591253E-2	2.409852E-2	-1.013887E+1	1.457878E-2	2.455003E-2	6.951371E-2	2.910311E-2
10/19/2017  17:20:17.527055	-2.289743E+0	1.319332E-2	1.391770E-2	-1.013887E+1	6.928941E-3	1.183011E-2	8.222822E-2	2.910311E-2
10/19/2017  17:20:17.528055	1.162290E+0	1.828100E-2	2.664372E-2	-1.012869E+1	1.967868E-2	1.437409E-2	8.222822E-2	3.673486E-2
10/19/2017  17:20:17.529055	3.378912E+0	1.319332E-2	1.900811E-2	-1.013123E+1	2.732853E-2	2.963800E-2	6.951371E-2	4.182269E-2
10/19/2017  17:20:17.530055	2.725618E+0	5.561801E-3	1.137250E-2	-1.013887E+1	2.732853E-2	2.200605E-2	7.205661E-2	2.910311E-2
10/19/2017  17:20:17.531055	2.789168E+0	2.082484E-2	2.155331E-2	-1.014142E+1	2.222863E-2	3.472597E-2	7.714242E-2	2.655919E-2
10/19/2017  17:20:17.532055	-4.112068E-1	2.591253E-2	2.664372E-2	-1.014142E+1	1.457878E-2	2.709402E-2	8.222822E-2	3.164702E-2
10/19/2017  17:20:17.533055	-1.733046E+0	8.105642E-3	2.155331E-2	-1.013887E+1	1.712873E-2	4.198150E-3	8.477112E-2	3.927877E-2
10/19/2017  17:20:17.534055	-8.713084E-1	4.741205E-4	1.646291E-2	-1.013887E+1	3.242842E-2	1.946206E-2	8.222822E-2	3.927877E-2
10/19/2017  17:20:17.535055	5.674623E-1	1.573716E-2	1.900811E-2	-1.014396E+1	1.967868E-2	2.200605E-2	7.714242E-2	3.927877E-2
10/19/2017  17:20:17.536055	5.267903E-1	1.064948E-2	1.391770E-2	-1.013887E+1	1.967868E-2	1.946206E-2	6.951371E-2	2.910311E-2
10/19/2017  17:20:17.537055	-5.128868E-1	2.082484E-2	2.155331E-2	-1.014396E+1	1.967868E-2	2.963800E-2	7.968532E-2	2.910311E-2
10/19/2017  17:20:17.538055	-2.175353E+0	2.591253E-2	1.900811E-2	-1.014651E+1	1.967868E-2	3.218199E-2	8.731403E-2	3.164702E-2
10/19/2017  17:20:17.539055	-1.966909E+0	1.064948E-2	2.409852E-2	-1.014651E+1	1.712873E-2	1.946206E-2	8.222822E-2	3.164702E-2
10/19/2017  17:20:17.540055	-3.578249E-1	1.064948E-2	1.900811E-2	-1.012869E+1	3.497837E-2	1.691808E-2	8.222822E-2	4.436661E-2
10/19/2017  17:20:17.541055	8.064101E-1	1.064948E-2	1.646291E-2	-1.013887E+1	2.222863E-2	2.455003E-2	8.222822E-2	3.164702E-2
10/19/2017  17:20:17.542055	1.836206E-1	1.573716E-2	8.827299E-3	-1.013887E+1	4.378993E-3	1.946206E-2	7.205661E-2	2.401527E-2
10/19/2017  17:20:17.543055	2.707824E+0	2.082484E-2	1.137250E-2	-1.012614E+1	2.222863E-2	2.709402E-2	7.968532E-2	3.164702E-2
10/19/2017  17:20:17.544055	3.134880E+0	1.828100E-2	2.664372E-2	-1.013887E+1	1.967868E-2	1.691808E-2	8.731403E-2	4.691052E-2
10/19/2017  17:20:17.545055	1.032648E+0	8.105642E-3	1.900811E-2	-1.012869E+1	2.222863E-2	1.183011E-2	6.951371E-2	3.927877E-2
10/19/2017  17:20:17.546055	-1.654244E+0	1.319332E-2	1.137250E-2	-1.013887E+1	2.987847E-2	1.946206E-2	7.205661E-2	2.147136E-2
								
10/19/2017  17:20:17.547055	-2.437179E+0	2.082484E-2	2.155331E-2	-1.013632E+1	2.222863E-2	2.709402E-2	7.968532E-2	2.147136E-2
10/19/2017  17:20:17.548055	-1.707626E+0	2.082484E-2	2.918892E-2	-1.014651E+1	1.457878E-2	2.455003E-2	8.222822E-2	3.164702E-2
10/19/2017  17:20:17.549055	-1.255150E+0	1.319332E-2	2.664372E-2	-1.011596E+1	1.457878E-2	1.437409E-2	8.985693E-2	3.927877E-2
10/19/2017  17:20:17.550055	4.225684E-1	1.319332E-2	1.900811E-2	-1.013378E+1	2.477858E-2	1.437409E-2	7.968532E-2	4.182269E-2
10/19/2017  17:20:17.551055	4.965118E+0	1.573716E-2	1.900811E-2	-1.014905E+1	2.222863E-2	1.691808E-2	6.188501E-2	3.164702E-2
10/19/2017  17:20:17.552055	3.414500E+0	1.573716E-2	3.736893E-3	-1.013887E+1	2.477858E-2	1.691808E-2	7.714242E-2	2.910311E-2
10/19/2017  17:20:17.553055	-4.569628E-1	2.591253E-2	2.155331E-2	-1.013887E+1	2.222863E-2	2.455003E-2	8.985693E-2	3.164702E-2
10/19/2017  17:20:17.554055	-3.395512E+0	1.319332E-2	1.900811E-2	-1.014142E+1	1.457878E-2	1.946206E-2	8.222822E-2	3.419094E-2
10/19/2017  17:20:17.555055	-5.840627E-1	1.064948E-2	2.155331E-2	-1.013632E+1	1.457878E-2	1.437409E-2	7.968532E-2	3.673486E-2
10/19/2017  17:20:17.556055	-1.951370E-1	8.105642E-3	8.827299E-3	-1.013632E+1	3.242842E-2	1.691808E-2	7.459952E-2	3.927877E-2
10/19/2017  17:20:17.557055	9.385939E-1	1.064948E-2	1.137250E-2	-1.013632E+1	2.477858E-2	1.946206E-2	6.951371E-2	3.164702E-2
10/19/2017  17:20:17.558055	5.013416E+0	2.336868E-2	1.137250E-2	-1.013632E+1	1.457878E-2	2.200605E-2	7.714242E-2	2.147136E-2
10/19/2017  17:20:17.559055	7.937001E-1	2.591253E-2	2.409852E-2	-1.012869E+1	1.967868E-2	2.200605E-2	8.222822E-2	3.927877E-2
10/19/2017  17:20:17.560055	-4.941047E+0	1.064948E-2	1.646291E-2	-1.014142E+1	2.987847E-2	1.183011E-2	7.459952E-2	4.182269E-2
10/19/2017  17:20:17.561055	-2.699005E+0	5.561801E-3	1.391770E-2	-1.015669E+1	2.987847E-2	1.946206E-2	7.205661E-2	3.419094E-2
10/19/2017  17:20:17.562055	3.170468E+0	1.573716E-2	1.900811E-2	-1.013887E+1	2.222863E-2	9.286120E-3	7.714242E-2	3.419094E-2
10/19/2017  17:20:17.563055	1.004686E+0	8.105642E-3	1.646291E-2	-1.013632E+1	2.477858E-2	2.455003E-2	7.968532E-2	3.164702E-2
10/19/2017  17:20:17.564055	-4.587709E+0	1.573716E-2	2.409852E-2	-1.014142E+1	1.457878E-2	1.437409E-2	8.477112E-2	2.910311E-2
10/19/2017  17:20:17.565055	-4.211493E+0	2.082484E-2	1.900811E-2	-1.015924E+1	2.222863E-2	1.691808E-2	7.968532E-2	3.419094E-2
10/19/2017  17:20:17.566055	-2.892197E+0	8.105642E-3	1.900811E-2	-1.014142E+1	2.222863E-2	1.691808E-2	7.459952E-2	3.673486E-2
10/19/2017  17:20:17.567055	-1.702542E+0	4.741205E-4	1.900811E-2	-1.015160E+1	1.202884E-2	1.946206E-2	7.459952E-2	3.673486E-2
10/19/2017  17:20:17.568055	1.022767E-1	1.319332E-2	1.137250E-2	-1.013632E+1	2.732853E-2	2.200605E-2	7.205661E-2	3.419094E-2
10/19/2017  17:20:17.569055	3.071330E+0	2.591253E-2	1.646291E-2	-1.012869E+1	3.497837E-2	2.455003E-2	7.968532E-2	2.910311E-2
10/19/2017  17:20:17.570055	4.952408E+0	1.319332E-2	1.646291E-2	-1.013632E+1	1.457878E-2	1.691808E-2	8.222822E-2	3.164702E-2
10/19/2017  17:20:17.571055	-1.616114E+0	1.319332E-2	1.900811E-2	-1.013378E+1	2.987847E-2	2.200605E-2	7.968532E-2	2.655919E-2
