Parameters: 	Upper Cutoff:  500	Lower Cutoff: 20	Sample Rate (Hz): 1000	Frames Per Second30	Display Window Size (S)100	MVC Window Size (s): 100	Seconds To Acquire MVC: 3	Display Channel: 0
10/19/2017  17:22:10.586404	4.126874E-2	8.105642E-3	1.391770E-2	-1.012614E+1	2.732853E-2	2.200605E-2	6.188501E-2	3.164702E-2
10/19/2017  17:22:10.587404	-4.007518E-2	5.561801E-3	6.282096E-3	-1.013632E+1	2.222863E-2	2.963800E-2	6.951371E-2	2.910311E-2
10/19/2017  17:22:10.588404	-6.041116E-2	2.591253E-2	1.646291E-2	-1.014396E+1	2.477858E-2	3.218199E-2	8.477112E-2	2.401527E-2
10/19/2017  17:22:10.589404	-1.010831E-1	1.828100E-2	1.900811E-2	-1.013887E+1	1.457878E-2	2.963800E-2	7.459952E-2	3.164702E-2
10/19/2017  17:22:10.590404	-1.087091E-1	1.573716E-2	2.155331E-2	-1.013378E+1	1.967868E-2	1.946206E-2	8.222822E-2	3.164702E-2
10/19/2017  17:22:10.591404	3.138778E-3	1.064948E-2	3.427933E-2	-1.012869E+1	1.457878E-2	1.691808E-2	7.968532E-2	4.436661E-2
10/19/2017  17:22:10.592404	-1.945217E-3	5.561801E-3	1.900811E-2	-1.012359E+1	1.967868E-2	1.437409E-2	7.459952E-2	3.673486E-2
10/19/2017  17:22:10.593404	1.076477E-2	1.064948E-2	-1.353514E-3	-1.013632E+1	1.967868E-2	1.691808E-2	6.697081E-2	3.164702E-2
10/19/2017  17:22:10.594404	6.923072E-2	1.064948E-2	1.391770E-2	-1.013887E+1	2.477858E-2	1.946206E-2	7.459952E-2	3.419094E-2
10/19/2017  17:22:10.595404	1.076477E-2	2.082484E-2	1.391770E-2	-1.014651E+1	2.477858E-2	3.981394E-2	7.205661E-2	2.910311E-2
10/19/2017  17:22:10.596404	-4.770118E-2	2.082484E-2	2.409852E-2	-1.014651E+1	1.457878E-2	2.963800E-2	8.477112E-2	3.164702E-2
10/19/2017  17:22:10.597404	-1.211321E-2	1.573716E-2	2.409852E-2	-1.013123E+1	1.457878E-2	2.200605E-2	8.222822E-2	4.182269E-2
10/19/2017  17:22:10.598404	-9.091514E-2	4.741205E-4	1.137250E-2	-1.012359E+1	1.712873E-2	1.691808E-2	7.205661E-2	3.927877E-2
10/19/2017  17:22:10.599404	-2.891910E-1	1.319332E-2	6.282096E-3	-1.013887E+1	2.732853E-2	1.183011E-2	7.205661E-2	2.147136E-2
10/19/2017  17:22:10.600404	-1.620911E-1	5.561801E-3	1.900811E-2	-1.014651E+1	2.477858E-2	2.455003E-2	7.459952E-2	3.419094E-2
10/19/2017  17:22:10.601404	-5.916887E-1	2.082484E-2	1.900811E-2	-1.014142E+1	2.222863E-2	2.963800E-2	7.714242E-2	2.910311E-2
10/19/2017  17:22:10.602404	-5.942307E-1	2.082484E-2	2.409852E-2	-1.012869E+1	4.378993E-3	2.455003E-2	7.714242E-2	2.655919E-2
10/19/2017  17:22:10.603404	2.853005E-1	1.319332E-2	1.900811E-2	-1.013378E+1	1.967868E-2	1.437409E-2	7.968532E-2	3.673486E-2
10/19/2017  17:22:10.604404	5.852563E-1	1.064948E-2	1.900811E-2	-1.012359E+1	3.497837E-2	1.437409E-2	7.968532E-2	4.436661E-2
10/19/2017  17:22:10.605404	1.289390E+0	1.573716E-2	8.827299E-3	-1.013887E+1	2.477858E-2	2.200605E-2	7.205661E-2	3.419094E-2
10/19/2017  17:22:10.606404	7.733641E-1	1.573716E-2	1.646291E-2	-1.013887E+1	3.497837E-2	2.200605E-2	7.459952E-2	2.910311E-2
10/19/2017  17:22:10.607404	-4.770118E-2	1.828100E-2	2.664372E-2	-1.013378E+1	2.222863E-2	2.963800E-2	7.205661E-2	3.164702E-2
10/19/2017  17:22:10.608404	-1.315871E-1	1.319332E-2	2.155331E-2	-1.013887E+1	4.378993E-3	2.455003E-2	8.477112E-2	2.147136E-2
10/19/2017  17:22:10.609404	1.022767E-1	8.105642E-3	1.900811E-2	-1.012359E+1	1.712873E-2	1.691808E-2	7.968532E-2	3.673486E-2
10/19/2017  17:22:10.610404	4.556144E-1	1.064948E-2	2.155331E-2	-1.012869E+1	2.222863E-2	1.437409E-2	7.714242E-2	5.454227E-2
10/19/2017  17:22:10.611404	2.497126E-1	1.064948E-2	2.155331E-2	-1.013887E+1	2.477858E-2	1.946206E-2	7.968532E-2	3.164702E-2
10/19/2017  17:22:10.612404	1.404067E-1	2.082484E-2	6.282096E-3	-1.013123E+1	2.732853E-2	2.709402E-2	6.951371E-2	2.401527E-2
10/19/2017  17:22:10.613404	1.632846E-1	2.082484E-2	1.646291E-2	-1.013632E+1	2.477858E-2	2.963800E-2	7.968532E-2	2.401527E-2
10/19/2017  17:22:10.614404	1.302387E-1	1.573716E-2	2.155331E-2	-1.014142E+1	1.457878E-2	1.946206E-2	8.222822E-2	1.892744E-2
10/19/2017  17:22:10.615404	1.200707E-1	1.573716E-2	1.646291E-2	-1.015924E+1	1.967868E-2	9.286120E-3	7.968532E-2	3.419094E-2
10/19/2017  17:22:10.616404	5.906273E-2	8.105642E-3	1.137250E-2	-1.012359E+1	1.967868E-2	1.946206E-2	7.714242E-2	3.673486E-2
10/19/2017  17:22:10.617404	8.702470E-2	1.064948E-2	1.137250E-2	-1.013632E+1	2.477858E-2	2.455003E-2	6.951371E-2	3.164702E-2
10/19/2017  17:22:10.618404	8.194071E-2	1.064948E-2	1.137250E-2	-1.014142E+1	1.712873E-2	2.455003E-2	7.714242E-2	3.673486E-2
								
waveform	[0]	[1]	[2]	[3]	[4]	[5]	[6]	[7]
t0	10/19/2017  17:22:10.615712	10/19/2017  17:22:10.615712	10/19/2017  17:22:10.615712	10/19/2017  17:22:10.615712	10/19/2017  17:22:10.615712	10/19/2017  17:22:10.615712	10/19/2017  17:22:10.615712	10/19/2017  17:22:10.615712
delta t	0.001000	0.001000	0.001000	0.001000	0.001000	0.001000	0.001000	0.001000

time	Y[0]	Y[1]	Y[2]	Y[3]	Y[4]	Y[5]	Y[6]	Y[7]
10/19/2017  17:22:10.619404	3.364275E-2	1.573716E-2	2.664372E-2	-1.014396E+1	1.457878E-2	2.709402E-2	9.239983E-2	2.910311E-2
10/19/2017  17:22:10.620404	-1.211321E-2	2.082484E-2	3.936974E-2	-1.013378E+1	2.477858E-2	1.437409E-2	8.222822E-2	3.927877E-2
10/19/2017  17:22:10.621404	-1.315871E-1	3.017961E-3	1.900811E-2	-1.013123E+1	2.222863E-2	1.691808E-2	7.459952E-2	3.419094E-2
10/19/2017  17:22:10.622404	-1.214191E-1	1.573716E-2	2.409852E-2	-1.013887E+1	2.732853E-2	2.963800E-2	6.951371E-2	3.419094E-2
10/19/2017  17:22:10.623404	-2.482320E-2	2.591253E-2	1.900811E-2	-1.013378E+1	2.222863E-2	1.946206E-2	7.205661E-2	2.401527E-2
10/19/2017  17:22:10.624404	9.210870E-2	1.573716E-2	1.900811E-2	-1.013632E+1	2.477858E-2	1.437409E-2	7.459952E-2	3.164702E-2
10/19/2017  17:22:10.625404	5.967806E-4	1.573716E-2	2.155331E-2	-1.013123E+1	1.457878E-2	1.691808E-2	7.968532E-2	4.182269E-2
10/19/2017  17:22:10.626404	2.855876E-2	8.105642E-3	1.391770E-2	-1.012869E+1	3.242842E-2	2.709402E-2	6.697081E-2	3.927877E-2
10/19/2017  17:22:10.627404	9.719269E-2	8.105642E-3	1.137250E-2	-1.014905E+1	2.477858E-2	2.709402E-2	7.205661E-2	2.147136E-2
10/19/2017  17:22:10.628404	1.022767E-1	1.828100E-2	2.664372E-2	-1.014396E+1	2.222863E-2	1.691808E-2	8.222822E-2	2.147136E-2
10/19/2017  17:22:10.629404	1.582006E-1	2.591253E-2	2.664372E-2	-1.013123E+1	2.222863E-2	1.691808E-2	8.222822E-2	3.419094E-2
10/19/2017  17:22:10.630404	3.618475E-2	1.573716E-2	1.137250E-2	-1.014142E+1	1.712873E-2	1.946206E-2	7.459952E-2	3.419094E-2
10/19/2017  17:22:10.631404	-5.278517E-2	2.845637E-2	1.900811E-2	-1.013887E+1	3.242842E-2	1.183011E-2	7.205661E-2	4.182269E-2
10/19/2017  17:22:10.632404	-1.973920E-2	1.319332E-2	1.646291E-2	-1.013123E+1	2.732853E-2	2.709402E-2	6.951371E-2	2.401527E-2
10/19/2017  17:22:10.633404	6.923072E-2	1.828100E-2	1.646291E-2	-1.013378E+1	1.457878E-2	2.709402E-2	7.714242E-2	3.164702E-2
10/19/2017  17:22:10.634404	1.658266E-1	1.573716E-2	2.155331E-2	-1.014142E+1	1.712873E-2	1.946206E-2	8.731403E-2	3.164702E-2
10/19/2017  17:22:10.635404	2.064986E-1	1.064948E-2	2.664372E-2	-1.012869E+1	9.478889E-3	1.691808E-2	7.968532E-2	4.182269E-2
10/19/2017  17:22:10.636404	1.988726E-1	5.561801E-3	1.137250E-2	-1.011850E+1	1.967868E-2	1.691808E-2	7.459952E-2	3.673486E-2
10/19/2017  17:22:10.637404	1.861626E-1	1.064948E-2	1.391770E-2	-1.013632E+1	1.967868E-2	2.200605E-2	6.442791E-2	2.655919E-2
10/19/2017  17:22:10.638404	1.200707E-1	2.336868E-2	8.827299E-3	-1.013632E+1	2.477858E-2	2.963800E-2	6.951371E-2	2.401527E-2
10/19/2017  17:22:10.639404	-1.973920E-2	2.082484E-2	2.155331E-2	-1.014651E+1	4.378993E-3	2.709402E-2	7.968532E-2	2.910311E-2
10/19/2017  17:22:10.640404	4.635274E-2	1.573716E-2	1.900811E-2	-1.014651E+1	1.457878E-2	1.691808E-2	7.968532E-2	3.927877E-2
10/19/2017  17:22:10.641404	9.973469E-2	8.105642E-3	1.646291E-2	-1.012869E+1	2.222863E-2	1.437409E-2	7.968532E-2	5.708619E-2
10/19/2017  17:22:10.642404	6.923072E-2	8.105642E-3	1.900811E-2	-1.013378E+1	1.712873E-2	2.455003E-2	8.222822E-2	3.419094E-2
10/19/2017  17:22:10.643404	8.448270E-2	1.319332E-2	8.827299E-3	-1.013123E+1	2.477858E-2	2.455003E-2	6.951371E-2	3.164702E-2
10/19/2017  17:22:10.644404	1.302387E-1	1.064948E-2	1.900811E-2	-1.015669E+1	2.222863E-2	2.963800E-2	7.459952E-2	2.655919E-2
10/19/2017  17:22:10.645404	9.465070E-2	1.828100E-2	3.173413E-2	-1.013887E+1	1.457878E-2	1.946206E-2	7.968532E-2	3.164702E-2
10/19/2017  17:22:10.646404	2.855876E-2	5.561801E-3	2.664372E-2	-1.013378E+1	1.457878E-2	6.742135E-3	8.731403E-2	3.673486E-2
10/19/2017  17:22:10.647404	-5.278517E-2	4.741205E-4	1.900811E-2	-1.012869E+1	2.477858E-2	1.691808E-2	6.697081E-2	3.419094E-2
10/19/2017  17:22:10.648404	-1.137931E-1	1.064948E-2	1.391770E-2	-1.013887E+1	2.477858E-2	2.200605E-2	7.459952E-2	2.401527E-2
10/19/2017  17:22:10.649404	-1.087091E-1	1.828100E-2	8.827299E-3	-1.014142E+1	2.222863E-2	1.946206E-2	7.714242E-2	2.147136E-2
10/19/2017  17:22:10.650404	-1.519231E-1	1.828100E-2	2.155331E-2	-1.013123E+1	1.712873E-2	1.946206E-2	7.968532E-2	3.927877E-2
10/19/2017  17:22:10.651404	-6.041116E-2	1.573716E-2	3.427933E-2	-1.012869E+1	2.987847E-2	2.200605E-2	7.459952E-2	4.436661E-2
								
10/19/2017  17:22:10.652404	3.618475E-2	1.064948E-2	1.137250E-2	-1.013887E+1	2.477858E-2	2.455003E-2	6.951371E-2	3.419094E-2
10/19/2017  17:22:10.653404	7.939871E-2	2.336868E-2	6.282096E-3	-1.013632E+1	1.457878E-2	2.200605E-2	7.714242E-2	2.655919E-2
10/19/2017  17:22:10.654404	1.099027E-1	1.828100E-2	1.900811E-2	-1.013123E+1	2.222863E-2	1.946206E-2	7.459952E-2	3.927877E-2
10/19/2017  17:22:10.655404	1.505746E-1	1.319332E-2	3.736893E-3	-1.013632E+1	1.457878E-2	2.709402E-2	8.222822E-2	3.673486E-2
10/19/2017  17:22:10.656404	1.022767E-1	8.105642E-3	1.900811E-2	-1.013378E+1	2.222863E-2	1.437409E-2	7.205661E-2	3.419094E-2
10/19/2017  17:22:10.657404	9.465070E-2	1.573716E-2	1.391770E-2	-1.013632E+1	2.987847E-2	3.726996E-2	6.951371E-2	3.673486E-2
10/19/2017  17:22:10.658404	9.973469E-2	2.591253E-2	1.137250E-2	-1.013632E+1	1.457878E-2	1.946206E-2	6.951371E-2	3.164702E-2
10/19/2017  17:22:10.659404	8.194071E-2	2.082484E-2	1.646291E-2	-1.014142E+1	2.222863E-2	1.437409E-2	7.714242E-2	3.164702E-2
10/19/2017  17:22:10.660404	-1.719720E-2	2.845637E-2	2.155331E-2	-1.013887E+1	2.477858E-2	1.946206E-2	8.222822E-2	3.419094E-2
10/19/2017  17:22:10.661404	3.138778E-3	1.573716E-2	2.664372E-2	-1.013378E+1	1.712873E-2	1.437409E-2	8.222822E-2	3.927877E-2
10/19/2017  17:22:10.662404	2.855876E-2	8.105642E-3	1.900811E-2	-1.014142E+1	1.202884E-2	1.437409E-2	7.205661E-2	3.419094E-2
10/19/2017  17:22:10.663404	-2.228120E-2	8.105642E-3	1.900811E-2	-1.013378E+1	2.222863E-2	2.455003E-2	7.459952E-2	3.164702E-2
10/19/2017  17:22:10.664404	-2.561450E-1	5.561801E-3	1.137250E-2	-1.013378E+1	2.477858E-2	2.200605E-2	7.205661E-2	2.655919E-2
10/19/2017  17:22:10.665404	-2.841070E-1	1.573716E-2	1.391770E-2	-1.014396E+1	3.242842E-2	2.963800E-2	6.951371E-2	2.655919E-2
10/19/2017  17:22:10.666404	5.906273E-2	2.082484E-2	2.155331E-2	-1.014142E+1	3.242842E-2	2.709402E-2	7.459952E-2	3.419094E-2
10/19/2017  17:22:10.667404	4.073164E-1	2.082484E-2	2.155331E-2	-1.014142E+1	1.967868E-2	2.963800E-2	7.205661E-2	3.164702E-2
10/19/2017  17:22:10.668404	4.759504E-1	2.591253E-2	2.155331E-2	-1.014651E+1	1.202884E-2	2.963800E-2	8.222822E-2	2.147136E-2
10/19/2017  17:22:10.669404	4.200264E-1	1.064948E-2	1.900811E-2	-1.012869E+1	1.457878E-2	1.691808E-2	7.968532E-2	3.673486E-2
10/19/2017  17:22:10.670404	6.208442E-1	1.064948E-2	2.664372E-2	-1.013123E+1	2.222863E-2	1.691808E-2	7.968532E-2	4.436661E-2
10/19/2017  17:22:10.671404	6.589742E-1	1.573716E-2	2.155331E-2	-1.012869E+1	1.967868E-2	1.946206E-2	7.968532E-2	3.419094E-2
10/19/2017  17:22:10.672404	5.369583E-1	1.319332E-2	1.137250E-2	-1.012869E+1	2.222863E-2	2.200605E-2	6.951371E-2	3.164702E-2
10/19/2017  17:22:10.673404	1.099027E-1	1.828100E-2	1.391770E-2	-1.012614E+1	2.987847E-2	2.963800E-2	7.714242E-2	2.401527E-2
10/19/2017  17:22:10.674404	8.222774E-3	2.591253E-2	2.155331E-2	-1.014142E+1	1.457878E-2	2.200605E-2	8.477112E-2	2.401527E-2
10/19/2017  17:22:10.675404	-3.499119E-2	1.573716E-2	2.409852E-2	-1.015924E+1	1.457878E-2	9.286120E-3	7.968532E-2	3.164702E-2
10/19/2017  17:22:10.676404	-7.566315E-2	5.561801E-3	2.155331E-2	-1.013632E+1	2.477858E-2	2.455003E-2	7.714242E-2	3.164702E-2
10/19/2017  17:22:10.677404	-6.041116E-2	8.105642E-3	1.137250E-2	-1.012869E+1	2.222863E-2	1.691808E-2	7.968532E-2	3.673486E-2
10/19/2017  17:22:10.678404	-6.803716E-2	5.561801E-3	1.391770E-2	-1.014142E+1	1.967868E-2	1.946206E-2	7.459952E-2	2.910311E-2
10/19/2017  17:22:10.679404	-4.007518E-2	1.319332E-2	1.137250E-2	-1.013632E+1	2.987847E-2	1.946206E-2	6.442791E-2	2.401527E-2
10/19/2017  17:22:10.680404	-4.515918E-2	2.845637E-2	1.646291E-2	-1.014396E+1	2.222863E-2	2.455003E-2	7.205661E-2	2.655919E-2
10/19/2017  17:22:10.681404	-6.041116E-2	1.828100E-2	1.646291E-2	-1.013632E+1	2.477858E-2	2.200605E-2	6.951371E-2	3.164702E-2
10/19/2017  17:22:10.682404	-1.036251E-1	1.828100E-2	3.682453E-2	-1.013123E+1	9.478889E-3	2.709402E-2	7.968532E-2	3.419094E-2
10/19/2017  17:22:10.683404	-7.312115E-2	8.105642E-3	1.900811E-2	-1.012614E+1	2.222863E-2	1.437409E-2	7.459952E-2	3.419094E-2
10/19/2017  17:22:10.684404	-9.854113E-2	8.105642E-3	1.191689E-3	-1.013378E+1	2.222863E-2	1.183011E-2	6.951371E-2	2.655919E-2
								
10/19/2017  17:22:10.685404	-1.849691E-1	3.100021E-2	1.137250E-2	-1.014142E+1	2.987847E-2	2.709402E-2	6.951371E-2	2.655919E-2
10/19/2017  17:22:10.686404	-4.493368E-1	2.082484E-2	1.900811E-2	-1.013887E+1	1.457878E-2	4.235793E-2	7.205661E-2	3.164702E-2
10/19/2017  17:22:10.687404	-2.942750E-1	8.105642E-3	1.900811E-2	-1.013632E+1	1.202884E-2	2.709402E-2	7.968532E-2	2.655919E-2
10/19/2017  17:22:10.688404	-1.036251E-1	1.319332E-2	2.664372E-2	-1.012869E+1	1.712873E-2	9.286120E-3	7.968532E-2	2.655919E-2
10/19/2017  17:22:10.689404	3.768124E-1	1.828100E-2	1.646291E-2	-1.012869E+1	2.477858E-2	1.183011E-2	7.968532E-2	3.673486E-2
10/19/2017  17:22:10.690404	6.793102E-1	1.064948E-2	1.391770E-2	-1.012869E+1	2.477858E-2	1.183011E-2	6.697081E-2	4.182269E-2
10/19/2017  17:22:10.691404	6.437222E-1	1.064948E-2	1.391770E-2	-1.014651E+1	3.242842E-2	1.946206E-2	6.697081E-2	3.419094E-2
10/19/2017  17:22:10.692404	8.448270E-2	1.319332E-2	2.155331E-2	-1.012359E+1	2.477858E-2	2.200605E-2	6.951371E-2	3.164702E-2
10/19/2017  17:22:10.693404	4.988283E-1	1.828100E-2	1.900811E-2	-1.013123E+1	2.477858E-2	2.455003E-2	7.714242E-2	2.910311E-2
10/19/2017  17:22:10.694404	1.403780E+0	1.573716E-2	2.155331E-2	-1.014651E+1	1.967868E-2	2.455003E-2	8.222822E-2	3.164702E-2
10/19/2017  17:22:10.695404	3.208885E-1	1.064948E-2	2.664372E-2	-1.013123E+1	9.478889E-3	1.946206E-2	8.222822E-2	4.436661E-2
10/19/2017  17:22:10.696404	-5.408487E-1	1.064948E-2	2.155331E-2	-1.012614E+1	2.222863E-2	1.691808E-2	7.714242E-2	3.673486E-2
10/19/2017  17:22:10.697404	-7.772545E-1	1.319332E-2	1.900811E-2	-1.013887E+1	9.478889E-3	1.437409E-2	7.968532E-2	3.419094E-2
10/19/2017  17:22:10.698404	-1.010831E-1	1.064948E-2	1.646291E-2	-1.013123E+1	2.987847E-2	1.946206E-2	6.951371E-2	3.164702E-2
10/19/2017  17:22:10.699404	2.370026E-1	2.336868E-2	1.137250E-2	-1.013887E+1	2.987847E-2	1.946206E-2	8.222822E-2	4.436661E-2
10/19/2017  17:22:10.700404	3.717284E-1	1.828100E-2	1.900811E-2	-1.015160E+1	2.222863E-2	2.455003E-2	6.951371E-2	3.164702E-2
10/19/2017  17:22:10.701404	3.030945E-1	1.828100E-2	2.918892E-2	-1.014142E+1	1.202884E-2	2.709402E-2	8.222822E-2	4.182269E-2
10/19/2017  17:22:10.702404	-1.442971E-1	1.319332E-2	2.664372E-2	-1.012614E+1	1.712873E-2	2.455003E-2	8.985693E-2	3.927877E-2
10/19/2017  17:22:10.703404	-1.366711E-1	8.105642E-3	1.391770E-2	-1.013378E+1	2.477858E-2	1.183011E-2	7.714242E-2	3.673486E-2
10/19/2017  17:22:10.704404	-1.951370E-1	1.319332E-2	1.900811E-2	-1.015415E+1	1.967868E-2	1.946206E-2	6.951371E-2	3.164702E-2
10/19/2017  17:22:10.705404	-1.925950E-1	1.319332E-2	2.155331E-2	-1.013378E+1	2.987847E-2	2.455003E-2	7.714242E-2	3.673486E-2
10/19/2017  17:22:10.706404	-2.103890E-1	2.082484E-2	2.155331E-2	-1.014905E+1	1.712873E-2	2.963800E-2	7.205661E-2	2.655919E-2
10/19/2017  17:22:10.707404	-1.773431E-1	5.561801E-3	6.282096E-3	-1.014142E+1	9.478889E-3	1.946206E-2	7.968532E-2	3.164702E-2
10/19/2017  17:22:10.708404	-1.570071E-1	5.561801E-3	2.664372E-2	-1.013123E+1	1.712873E-2	2.200605E-2	9.239983E-2	3.164702E-2
10/19/2017  17:22:10.709404	-1.315871E-1	1.064948E-2	4.191494E-2	-1.013123E+1	1.967868E-2	2.963800E-2	7.459952E-2	3.927877E-2
10/19/2017  17:22:10.710404	-1.544651E-1	5.561801E-3	1.900811E-2	-1.013123E+1	2.222863E-2	1.691808E-2	7.459952E-2	3.927877E-2
10/19/2017  17:22:10.711404	-1.951370E-1	1.064948E-2	1.137250E-2	-1.013378E+1	2.477858E-2	2.709402E-2	7.205661E-2	3.419094E-2
10/19/2017  17:22:10.712404	-2.485190E-1	1.828100E-2	1.900811E-2	-1.013378E+1	2.987847E-2	2.709402E-2	6.951371E-2	2.401527E-2
10/19/2017  17:22:10.713404	-2.866490E-1	1.828100E-2	1.646291E-2	-1.014142E+1	2.477858E-2	2.200605E-2	7.968532E-2	2.401527E-2
10/19/2017  17:22:10.714404	-2.764810E-1	2.336868E-2	2.155331E-2	-1.013887E+1	1.712873E-2	2.200605E-2	8.477112E-2	3.164702E-2
10/19/2017  17:22:10.715404	-1.417551E-1	8.105642E-3	1.900811E-2	-1.013123E+1	2.987847E-2	1.183011E-2	7.968532E-2	4.182269E-2
10/19/2017  17:22:10.716404	-2.942750E-1	5.561801E-3	1.900811E-2	-1.013887E+1	1.457878E-2	1.946206E-2	7.459952E-2	3.164702E-2
10/19/2017  17:22:10.717404	-3.984969E-1	1.319332E-2	1.137250E-2	-1.013632E+1	2.987847E-2	1.691808E-2	7.205661E-2	2.401527E-2
								
10/19/2017  17:22:10.718404	-6.603226E-1	3.100021E-2	1.137250E-2	-1.013632E+1	3.752832E-2	2.709402E-2	7.205661E-2	2.655919E-2
10/19/2017  17:22:10.719404	-4.900088E-1	1.828100E-2	2.155331E-2	-1.014651E+1	2.222863E-2	2.963800E-2	7.459952E-2	2.655919E-2
10/19/2017  17:22:10.720404	-4.493368E-1	4.741205E-4	1.391770E-2	-1.014651E+1	9.478889E-3	2.455003E-2	7.968532E-2	3.164702E-2
10/19/2017  17:22:10.721404	1.099027E-1	1.573716E-2	2.664372E-2	-1.013632E+1	2.222863E-2	2.455003E-2	7.459952E-2	3.164702E-2
10/19/2017  17:22:10.722404	1.030106E+0	1.064948E-2	1.900811E-2	-1.012105E+1	1.457878E-2	1.691808E-2	7.714242E-2	3.164702E-2
10/19/2017  17:22:10.723404	1.416490E+0	1.573716E-2	1.391770E-2	-1.012869E+1	2.222863E-2	2.455003E-2	7.968532E-2	3.673486E-2
10/19/2017  17:22:10.724404	1.627475E+0	1.828100E-2	1.137250E-2	-1.013632E+1	2.222863E-2	2.200605E-2	6.951371E-2	3.673486E-2
10/19/2017  17:22:10.725404	1.675773E+0	1.828100E-2	2.155331E-2	-1.014142E+1	2.477858E-2	2.963800E-2	7.459952E-2	2.655919E-2
10/19/2017  17:22:10.726404	7.174401E-1	1.319332E-2	1.646291E-2	-1.012869E+1	1.202884E-2	2.200605E-2	6.442791E-2	3.673486E-2
10/19/2017  17:22:10.727404	-7.820515E-2	1.573716E-2	2.155331E-2	-1.012869E+1	1.712873E-2	2.200605E-2	8.985693E-2	3.164702E-2
10/19/2017  17:22:10.728404	1.556586E-1	1.064948E-2	1.646291E-2	-1.013123E+1	1.967868E-2	9.286120E-3	8.222822E-2	4.182269E-2
10/19/2017  17:22:10.729404	-1.211321E-2	1.319332E-2	1.137250E-2	-1.014396E+1	1.967868E-2	2.455003E-2	7.205661E-2	2.910311E-2
10/19/2017  17:22:10.730404	-2.332670E-1	1.573716E-2	1.646291E-2	-1.013378E+1	2.732853E-2	2.455003E-2	7.205661E-2	2.655919E-2
10/19/2017  17:22:10.731404	-1.392131E-1	1.319332E-2	1.137250E-2	-1.012105E+1	2.222863E-2	2.963800E-2	7.205661E-2	2.401527E-2
10/19/2017  17:22:10.732404	-1.061671E-1	1.573716E-2	1.900811E-2	-1.014142E+1	1.967868E-2	2.963800E-2	7.459952E-2	4.691052E-2
10/19/2017  17:22:10.733404	1.584877E-2	2.336868E-2	2.664372E-2	-1.016178E+1	1.457878E-2	1.946206E-2	8.985693E-2	3.164702E-2
10/19/2017  17:22:10.734404	-8.328914E-2	2.336868E-2	2.664372E-2	-1.013887E+1	1.967868E-2	1.946206E-2	7.968532E-2	3.673486E-2
10/19/2017  17:22:10.735404	-6.295316E-2	1.064948E-2	2.155331E-2	-1.013887E+1	2.222863E-2	2.963800E-2	6.697081E-2	3.927877E-2
10/19/2017  17:22:10.736404	3.364275E-2	-2.069720E-3	1.391770E-2	-1.013887E+1	1.712873E-2	1.437409E-2	7.714242E-2	3.419094E-2
10/19/2017  17:22:10.737404	-1.163351E-1	1.573716E-2	1.137250E-2	-1.012869E+1	2.987847E-2	2.963800E-2	7.968532E-2	3.164702E-2
10/19/2017  17:22:10.738404	6.160473E-2	8.105642E-3	1.137250E-2	-1.014142E+1	2.987847E-2	2.709402E-2	7.205661E-2	2.910311E-2
10/19/2017  17:22:10.739404	1.226127E-1	2.591253E-2	1.900811E-2	-1.014396E+1	2.477858E-2	2.963800E-2	8.985693E-2	2.655919E-2
10/19/2017  17:22:10.740404	3.844384E-1	1.828100E-2	3.173413E-2	-1.013887E+1	2.732853E-2	1.946206E-2	7.714242E-2	3.164702E-2
10/19/2017  17:22:10.741404	1.276967E-1	1.064948E-2	2.155331E-2	-1.013887E+1	1.712873E-2	2.200605E-2	7.205661E-2	3.164702E-2
10/19/2017  17:22:10.742404	-2.485190E-1	1.064948E-2	8.827299E-3	-1.012614E+1	1.202884E-2	2.455003E-2	8.477112E-2	3.927877E-2
10/19/2017  17:22:10.743404	5.906273E-2	1.319332E-2	1.900811E-2	-1.012869E+1	2.732853E-2	1.691808E-2	7.459952E-2	4.182269E-2
10/19/2017  17:22:10.744404	2.751325E-1	1.319332E-2	1.137250E-2	-1.013632E+1	2.732853E-2	1.691808E-2	7.205661E-2	3.164702E-2
10/19/2017  17:22:10.745404	4.047744E-1	5.561801E-3	1.137250E-2	-1.014651E+1	2.222863E-2	2.709402E-2	6.951371E-2	2.910311E-2
10/19/2017  17:22:10.746404	6.793102E-1	1.064948E-2	1.900811E-2	-1.013632E+1	2.222863E-2	3.218199E-2	7.968532E-2	3.164702E-2
10/19/2017  17:22:10.747404	5.166223E-1	2.591253E-2	1.900811E-2	-1.013632E+1	1.967868E-2	2.200605E-2	7.968532E-2	3.164702E-2
10/19/2017  17:22:10.748404	-2.154730E-1	1.828100E-2	2.155331E-2	-1.013632E+1	2.222863E-2	1.691808E-2	8.222822E-2	2.655919E-2
10/19/2017  17:22:10.749404	-3.146109E-1	2.591253E-2	2.155331E-2	-1.013378E+1	1.967868E-2	1.183011E-2	7.968532E-2	3.927877E-2
10/19/2017  17:22:10.750404	-5.001768E-1	1.064948E-2	1.900811E-2	-1.013378E+1	1.967868E-2	1.691808E-2	7.459952E-2	3.927877E-2
								
10/19/2017  17:22:10.751404	-4.569628E-1	8.105642E-3	1.391770E-2	-1.012869E+1	2.222863E-2	1.183011E-2	6.697081E-2	2.910311E-2
10/19/2017  17:22:10.752404	-2.790230E-1	8.105642E-3	1.391770E-2	-1.013632E+1	2.732853E-2	2.709402E-2	7.205661E-2	3.673486E-2
10/19/2017  17:22:10.753404	-1.595491E-1	1.573716E-2	1.646291E-2	-1.013632E+1	2.477858E-2	2.200605E-2	7.459952E-2	3.927877E-2
10/19/2017  17:22:10.754404	5.397873E-2	2.082484E-2	1.646291E-2	-1.014396E+1	2.222863E-2	2.455003E-2	7.459952E-2	2.401527E-2
10/19/2017  17:22:10.755404	5.979662E-1	2.336868E-2	2.155331E-2	-1.014142E+1	1.457878E-2	2.200605E-2	7.205661E-2	3.927877E-2
10/19/2017  17:22:10.756404	9.106320E-1	1.064948E-2	2.918892E-2	-1.013378E+1	1.712873E-2	2.200605E-2	8.222822E-2	3.164702E-2
10/19/2017  17:22:10.757404	9.589299E-1	8.105642E-3	2.155331E-2	-1.012869E+1	1.457878E-2	1.437409E-2	8.731403E-2	3.927877E-2
10/19/2017  17:22:10.758404	6.233862E-1	1.064948E-2	1.137250E-2	-1.012614E+1	2.222863E-2	1.437409E-2	8.222822E-2	4.182269E-2
10/19/2017  17:22:10.759404	3.872675E-2	1.828100E-2	2.155331E-2	-1.013378E+1	2.222863E-2	1.946206E-2	7.968532E-2	3.927877E-2
10/19/2017  17:22:10.760404	4.327364E-1	1.573716E-2	1.900811E-2	-1.013378E+1	2.222863E-2	2.455003E-2	7.205661E-2	3.164702E-2
10/19/2017  17:22:10.761404	1.861626E-1	8.105642E-3	2.155331E-2	-1.013632E+1	2.732853E-2	2.963800E-2	6.951371E-2	2.910311E-2
10/19/2017  17:22:10.762404	-6.018567E-1	2.082484E-2	1.900811E-2	-1.013887E+1	2.222863E-2	3.218199E-2	8.222822E-2	2.655919E-2
10/19/2017  17:22:10.763404	-7.925065E-1	1.319332E-2	2.155331E-2	-1.013378E+1	2.477858E-2	1.946206E-2	7.205661E-2	2.147136E-2
10/19/2017  17:22:10.764404	-6.323606E-1	1.573716E-2	1.646291E-2	-1.014905E+1	1.457878E-2	1.183011E-2	7.968532E-2	3.164702E-2
10/19/2017  17:22:10.765404	-5.713527E-1	1.064948E-2	1.900811E-2	-1.012869E+1	2.477858E-2	1.183011E-2	7.714242E-2	3.927877E-2
10/19/2017  17:22:10.766404	3.110075E-2	1.319332E-2	1.646291E-2	-1.015160E+1	1.712873E-2	1.183011E-2	7.459952E-2	3.927877E-2
10/19/2017  17:22:10.767404	2.853005E-1	5.561801E-3	8.827299E-3	-1.013632E+1	2.477858E-2	2.455003E-2	7.205661E-2	3.164702E-2
10/19/2017  17:22:10.768404	1.658266E-1	1.573716E-2	1.900811E-2	-1.013887E+1	2.477858E-2	2.455003E-2	8.985693E-2	2.910311E-2
10/19/2017  17:22:10.769404	2.344606E-1	1.064948E-2	2.664372E-2	-1.013632E+1	2.987847E-2	2.709402E-2	7.459952E-2	3.164702E-2
10/19/2017  17:22:10.770404	-1.620911E-1	1.064948E-2	2.664372E-2	-1.013632E+1	1.457878E-2	1.946206E-2	7.205661E-2	3.419094E-2
10/19/2017  17:22:10.771404	-4.671308E-1	1.319332E-2	2.664372E-2	-1.013378E+1	9.478889E-3	2.200605E-2	8.222822E-2	4.182269E-2
10/19/2017  17:22:10.772404	-7.772545E-1	1.319332E-2	1.646291E-2	-1.012869E+1	2.732853E-2	1.437409E-2	6.442791E-2	3.673486E-2
10/19/2017  17:22:10.773404	-5.738947E-1	1.828100E-2	8.827299E-3	-1.013632E+1	2.222863E-2	2.455003E-2	7.459952E-2	3.164702E-2
10/19/2017  17:22:10.774404	-6.803716E-2	1.828100E-2	1.137250E-2	-1.013887E+1	3.242842E-2	2.200605E-2	7.205661E-2	3.164702E-2
10/19/2017  17:22:10.775404	1.404067E-1	2.082484E-2	1.137250E-2	-1.014396E+1	2.732853E-2	2.455003E-2	6.951371E-2	3.164702E-2
10/19/2017  17:22:10.776404	3.844384E-1	1.319332E-2	2.409852E-2	-1.014142E+1	1.457878E-2	2.709402E-2	8.222822E-2	2.147136E-2
10/19/2017  17:22:10.777404	-9.571210E-3	1.319332E-2	2.664372E-2	-1.013123E+1	1.712873E-2	1.946206E-2	8.477112E-2	3.164702E-2
10/19/2017  17:22:10.778404	-5.281387E-1	2.336868E-2	1.900811E-2	-1.013887E+1	2.222863E-2	1.946206E-2	7.714242E-2	3.419094E-2
10/19/2017  17:22:10.779404	-6.171087E-1	1.064948E-2	1.646291E-2	-1.013123E+1	2.222863E-2	1.437409E-2	7.714242E-2	2.401527E-2
10/19/2017  17:22:10.780404	-7.492925E-1	1.064948E-2	1.137250E-2	-1.014396E+1	2.987847E-2	1.946206E-2	6.951371E-2	3.673486E-2
10/19/2017  17:22:10.781404	3.412245E-1	2.336868E-2	1.391770E-2	-1.013378E+1	2.222863E-2	1.946206E-2	6.951371E-2	2.401527E-2
10/19/2017  17:22:10.782404	2.918810E+0	5.561801E-3	1.646291E-2	-1.013632E+1	1.967868E-2	2.963800E-2	7.459952E-2	2.147136E-2
10/19/2017  17:22:10.783404	3.750043E+0	1.319332E-2	1.900811E-2	-1.014651E+1	1.457878E-2	2.455003E-2	7.968532E-2	3.419094E-2
								
10/19/2017  17:22:10.784404	1.708819E+0	1.828100E-2	1.646291E-2	-1.013123E+1	2.987847E-2	1.691808E-2	8.222822E-2	3.673486E-2
10/19/2017  17:22:10.785404	-1.822016E+0	1.064948E-2	2.155331E-2	-1.014142E+1	2.477858E-2	1.437409E-2	7.205661E-2	3.673486E-2
10/19/2017  17:22:10.786404	-1.738130E+0	1.064948E-2	1.900811E-2	-1.013887E+1	1.712873E-2	1.946206E-2	6.951371E-2	3.419094E-2
10/19/2017  17:22:10.787404	-1.344120E+0	1.319332E-2	1.391770E-2	-1.013632E+1	2.732853E-2	2.455003E-2	6.951371E-2	3.419094E-2
10/19/2017  17:22:10.788404	-7.543765E-1	2.082484E-2	1.646291E-2	-1.014142E+1	2.987847E-2	2.455003E-2	6.951371E-2	2.147136E-2
10/19/2017  17:22:10.789404	-2.891910E-1	1.828100E-2	1.391770E-2	-1.015160E+1	1.457878E-2	2.200605E-2	7.714242E-2	2.401527E-2
10/19/2017  17:22:10.790404	2.954685E-1	1.573716E-2	2.664372E-2	-1.013632E+1	2.222863E-2	2.200605E-2	7.968532E-2	4.182269E-2
10/19/2017  17:22:10.791404	5.293323E-1	1.064948E-2	3.173413E-2	-1.012869E+1	1.457878E-2	2.455003E-2	7.205661E-2	3.164702E-2
10/19/2017  17:22:10.792404	3.056365E-1	5.561801E-3	2.155331E-2	-1.012614E+1	1.712873E-2	1.437409E-2	7.968532E-2	2.655919E-2
10/19/2017  17:22:10.793404	-1.620911E-1	1.064948E-2	1.391770E-2	-1.014651E+1	2.477858E-2	6.742135E-3	7.459952E-2	3.927877E-2
10/19/2017  17:22:10.794404	-2.688550E-1	2.082484E-2	1.137250E-2	-1.013632E+1	3.242842E-2	2.200605E-2	6.951371E-2	3.419094E-2
10/19/2017  17:22:10.795404	4.734084E-1	1.319332E-2	2.155331E-2	-1.013378E+1	2.222863E-2	3.218199E-2	6.442791E-2	2.401527E-2
10/19/2017  17:22:10.796404	2.980105E-1	1.573716E-2	1.137250E-2	-1.013123E+1	1.967868E-2	2.455003E-2	8.222822E-2	2.910311E-2
10/19/2017  17:22:10.797404	7.685671E-2	1.064948E-2	2.409852E-2	-1.014651E+1	1.457878E-2	2.709402E-2	8.477112E-2	3.927877E-2
10/19/2017  17:22:10.798404	2.601676E-2	1.828100E-2	1.900811E-2	-1.013378E+1	1.712873E-2	1.691808E-2	7.714242E-2	3.673486E-2
10/19/2017  17:22:10.799404	6.923072E-2	1.319332E-2	1.900811E-2	-1.013123E+1	2.732853E-2	1.946206E-2	7.714242E-2	3.673486E-2
10/19/2017  17:22:10.800404	2.446286E-1	1.573716E-2	2.155331E-2	-1.013887E+1	3.242842E-2	2.455003E-2	6.697081E-2	3.419094E-2
10/19/2017  17:22:10.801404	5.293323E-1	1.319332E-2	1.391770E-2	-1.014651E+1	2.732853E-2	2.963800E-2	6.951371E-2	2.910311E-2
10/19/2017  17:22:10.802404	7.939871E-2	1.828100E-2	1.137250E-2	-1.014142E+1	1.202884E-2	2.200605E-2	7.714242E-2	2.401527E-2
10/19/2017  17:22:10.803404	7.939871E-2	2.336868E-2	1.900811E-2	-1.013123E+1	2.477858E-2	2.963800E-2	7.459952E-2	3.164702E-2
10/19/2017  17:22:10.804404	4.657824E-1	1.828100E-2	2.155331E-2	-1.013632E+1	1.457878E-2	2.709402E-2	8.222822E-2	3.164702E-2
10/19/2017  17:22:10.805404	5.928822E-1	1.064948E-2	2.409852E-2	-1.013123E+1	9.478889E-3	1.437409E-2	7.968532E-2	3.927877E-2
10/19/2017  17:22:10.806404	6.513482E-1	1.064948E-2	1.900811E-2	-1.013123E+1	2.477858E-2	2.963800E-2	7.459952E-2	3.927877E-2
10/19/2017  17:22:10.807404	7.072721E-1	4.741205E-4	1.900811E-2	-1.013378E+1	2.477858E-2	2.455003E-2	7.968532E-2	2.910311E-2
10/19/2017  17:22:10.808404	1.937886E-1	1.064948E-2	1.137250E-2	-1.013887E+1	2.987847E-2	6.742135E-3	7.205661E-2	2.910311E-2
10/19/2017  17:22:10.809404	-1.646331E-1	3.608789E-2	1.137250E-2	-1.013887E+1	2.477858E-2	2.963800E-2	6.697081E-2	2.655919E-2
10/19/2017  17:22:10.810404	4.635274E-2	2.082484E-2	2.409852E-2	-1.013887E+1	2.222863E-2	2.709402E-2	7.459952E-2	3.164702E-2
10/19/2017  17:22:10.811404	1.373276E+0	3.017961E-3	1.900811E-2	-1.014142E+1	2.987847E-2	2.200605E-2	7.968532E-2	2.401527E-2
10/19/2017  17:22:10.812404	1.261428E+0	1.064948E-2	2.155331E-2	-1.013632E+1	1.967868E-2	1.946206E-2	8.222822E-2	3.164702E-2
10/19/2017  17:22:10.813404	1.846087E+0	8.105642E-3	2.664372E-2	-1.011850E+1	2.222863E-2	1.691808E-2	8.477112E-2	3.673486E-2
10/19/2017  17:22:10.814404	1.159748E+0	1.064948E-2	1.646291E-2	-1.013632E+1	2.222863E-2	1.183011E-2	7.459952E-2	3.927877E-2
10/19/2017  17:22:10.815404	-3.654509E-1	1.319332E-2	2.155331E-2	-1.013123E+1	1.457878E-2	1.946206E-2	7.205661E-2	3.927877E-2
10/19/2017  17:22:10.816404	-1.095004E+0	1.319332E-2	1.646291E-2	-1.013378E+1	2.732853E-2	2.200605E-2	6.951371E-2	3.164702E-2
								
10/19/2017  17:22:10.817404	-1.206852E+0	1.828100E-2	1.137250E-2	-1.014651E+1	2.732853E-2	2.709402E-2	6.951371E-2	1.383961E-2
10/19/2017  17:22:10.818404	-9.806143E-1	2.336868E-2	1.137250E-2	-1.015415E+1	2.477858E-2	2.455003E-2	7.714242E-2	3.164702E-2
10/19/2017  17:22:10.819404	-8.433465E-1	2.082484E-2	2.155331E-2	-1.014142E+1	1.457878E-2	2.709402E-2	8.222822E-2	3.164702E-2
10/19/2017  17:22:10.820404	-7.823385E-1	1.573716E-2	2.664372E-2	-1.013123E+1	2.477858E-2	1.946206E-2	7.968532E-2	3.164702E-2
10/19/2017  17:22:10.821404	-9.119804E-1	8.105642E-3	2.155331E-2	-1.013632E+1	2.222863E-2	1.691808E-2	8.222822E-2	2.401527E-2
10/19/2017  17:22:10.822404	-7.492925E-1	1.064948E-2	2.918892E-2	-1.011596E+1	1.457878E-2	1.691808E-2	8.477112E-2	3.164702E-2
10/19/2017  17:22:10.823404	-6.374446E-1	1.064948E-2	1.391770E-2	-1.012614E+1	2.222863E-2	1.437409E-2	7.714242E-2	3.673486E-2
10/19/2017  17:22:10.824404	-5.179708E-1	8.105642E-3	1.646291E-2	-1.014651E+1	2.987847E-2	1.437409E-2	7.714242E-2	3.673486E-2
10/19/2017  17:22:10.825404	-4.671308E-1	1.064948E-2	1.391770E-2	-1.013378E+1	1.712873E-2	2.200605E-2	7.459952E-2	3.164702E-2
10/19/2017  17:22:10.826404	-3.552829E-1	1.064948E-2	1.391770E-2	-1.013887E+1	2.477858E-2	2.455003E-2	7.714242E-2	2.910311E-2
10/19/2017  17:22:10.827404	-1.875110E-1	2.336868E-2	1.137250E-2	-1.014142E+1	3.242842E-2	2.709402E-2	7.205661E-2	2.401527E-2
10/19/2017  17:22:10.828404	-4.515918E-2	1.828100E-2	1.900811E-2	-1.013632E+1	2.477858E-2	2.963800E-2	7.205661E-2	2.655919E-2
10/19/2017  17:22:10.829404	-4.007518E-2	1.828100E-2	2.155331E-2	-1.013887E+1	2.732853E-2	2.709402E-2	7.205661E-2	3.164702E-2
10/19/2017  17:22:10.830404	-1.620911E-1	1.064948E-2	2.409852E-2	-1.013123E+1	1.712873E-2	1.691808E-2	7.714242E-2	3.927877E-2
10/19/2017  17:22:10.831404	-5.459327E-1	1.064948E-2	3.173413E-2	-1.012614E+1	1.712873E-2	2.455003E-2	7.459952E-2	3.673486E-2
10/19/2017  17:22:10.832404	-8.128425E-1	1.828100E-2	1.391770E-2	-1.012359E+1	1.967868E-2	2.200605E-2	7.714242E-2	3.164702E-2
10/19/2017  17:22:10.833404	-5.866047E-1	1.319332E-2	1.391770E-2	-1.013378E+1	2.987847E-2	9.286120E-3	6.951371E-2	2.910311E-2
10/19/2017  17:22:10.834404	-7.137046E-1	2.845637E-2	1.391770E-2	-1.013887E+1	2.477858E-2	1.946206E-2	7.714242E-2	3.164702E-2
10/19/2017  17:22:10.835404	-2.256410E-1	2.336868E-2	1.900811E-2	-1.013887E+1	1.712873E-2	4.490191E-2	7.459952E-2	3.164702E-2
10/19/2017  17:22:10.836404	1.261428E+0	3.100021E-2	2.664372E-2	-1.012869E+1	1.202884E-2	2.709402E-2	7.714242E-2	3.164702E-2
10/19/2017  17:22:10.837404	2.143501E+0	1.828100E-2	2.409852E-2	-1.013378E+1	1.967868E-2	9.286120E-3	8.222822E-2	3.927877E-2
10/19/2017  17:22:10.838404	2.252807E+0	2.082484E-2	1.900811E-2	-1.012614E+1	2.732853E-2	1.437409E-2	7.968532E-2	4.182269E-2
10/19/2017  17:22:10.839404	1.734239E+0	1.319332E-2	1.900811E-2	-1.012869E+1	2.222863E-2	9.286120E-3	7.459952E-2	2.910311E-2
10/19/2017  17:22:10.840404	7.047301E-1	5.561801E-3	1.391770E-2	-1.014142E+1	2.987847E-2	1.946206E-2	6.697081E-2	3.673486E-2
10/19/2017  17:22:10.841404	9.182580E-1	1.064948E-2	2.155331E-2	-1.013632E+1	2.222863E-2	2.200605E-2	7.714242E-2	2.655919E-2
10/19/2017  17:22:10.842404	-3.629089E-1	2.082484E-2	1.646291E-2	-1.013378E+1	3.242842E-2	1.946206E-2	7.968532E-2	2.655919E-2
10/19/2017  17:22:10.843404	-7.823385E-1	1.573716E-2	2.155331E-2	-1.014396E+1	1.457878E-2	1.691808E-2	7.968532E-2	3.164702E-2
10/19/2017  17:22:10.844404	-7.416665E-1	1.319332E-2	1.900811E-2	-1.013632E+1	3.242842E-2	2.455003E-2	7.968532E-2	4.436661E-2
10/19/2017  17:22:10.845404	7.098141E-1	1.064948E-2	2.664372E-2	-1.011341E+1	2.477858E-2	1.946206E-2	7.968532E-2	2.910311E-2
10/19/2017  17:22:10.846404	1.025022E+0	3.017961E-3	1.137250E-2	-1.013123E+1	1.457878E-2	1.437409E-2	6.188501E-2	2.147136E-2
10/19/2017  17:22:10.847404	1.052984E+0	1.573716E-2	6.282096E-3	-1.013632E+1	2.987847E-2	1.946206E-2	7.205661E-2	2.655919E-2
10/19/2017  17:22:10.848404	2.878425E-1	2.082484E-2	1.391770E-2	-1.014396E+1	2.987847E-2	2.709402E-2	7.205661E-2	1.638352E-2
10/19/2017  17:22:10.849404	-6.959106E-1	2.336868E-2	1.646291E-2	-1.015924E+1	1.967868E-2	2.709402E-2	8.477112E-2	2.401527E-2
								
10/19/2017  17:22:10.850404	2.344606E-1	1.064948E-2	2.664372E-2	-1.013378E+1	1.457878E-2	2.455003E-2	8.222822E-2	4.182269E-2
10/19/2017  17:22:10.851404	3.007780E+0	1.573716E-2	2.664372E-2	-1.012614E+1	1.967868E-2	1.691808E-2	7.459952E-2	3.164702E-2
10/19/2017  17:22:10.852404	2.761206E+0	1.064948E-2	1.137250E-2	-1.012869E+1	1.967868E-2	9.286120E-3	7.459952E-2	3.927877E-2
10/19/2017  17:22:10.853404	1.050442E+0	1.573716E-2	1.391770E-2	-1.015415E+1	3.242842E-2	1.183011E-2	6.951371E-2	3.673486E-2
10/19/2017  17:22:10.854404	-5.916887E-1	2.336868E-2	1.391770E-2	-1.014651E+1	3.242842E-2	2.963800E-2	7.205661E-2	2.401527E-2
10/19/2017  17:22:10.855404	-1.979619E+0	1.828100E-2	1.900811E-2	-1.014396E+1	1.967868E-2	2.709402E-2	6.951371E-2	2.655919E-2
10/19/2017  17:22:10.856404	-1.608488E+0	8.105642E-3	1.391770E-2	-1.014396E+1	2.222863E-2	2.709402E-2	7.459952E-2	2.401527E-2
10/19/2017  17:22:10.857404	-1.527144E+0	5.561801E-3	2.155331E-2	-1.013632E+1	1.457878E-2	1.946206E-2	9.748563E-2	3.673486E-2
10/19/2017  17:22:10.858404	-1.018744E+0	1.573716E-2	1.137250E-2	-1.012869E+1	1.967868E-2	9.286120E-3	7.459952E-2	3.927877E-2
10/19/2017  17:22:10.859404	-1.519518E+0	1.573716E-2	1.900811E-2	-1.013887E+1	1.967868E-2	1.946206E-2	7.714242E-2	3.164702E-2
10/19/2017  17:22:10.860404	8.750440E-1	1.573716E-2	3.682453E-2	-1.013632E+1	2.732853E-2	2.455003E-2	7.205661E-2	3.164702E-2
10/19/2017  17:22:10.861404	1.752033E+0	2.591253E-2	1.646291E-2	-1.013887E+1	1.967868E-2	2.709402E-2	7.714242E-2	2.401527E-2
10/19/2017  17:22:10.862404	3.167926E+0	1.319332E-2	1.646291E-2	-1.012869E+1	2.222863E-2	1.437409E-2	7.968532E-2	3.164702E-2
10/19/2017  17:22:10.863404	1.002144E+0	1.319332E-2	1.646291E-2	-1.013632E+1	1.712873E-2	1.946206E-2	7.968532E-2	3.419094E-2
10/19/2017  17:22:10.864404	-1.611030E+0	1.064948E-2	1.900811E-2	-1.013123E+1	2.477858E-2	9.286120E-3	7.459952E-2	4.182269E-2
10/19/2017  17:22:10.865404	-1.959283E+0	-2.069720E-3	1.137250E-2	-1.013378E+1	2.987847E-2	1.183011E-2	6.951371E-2	3.419094E-2
10/19/2017  17:22:10.866404	4.657824E-1	1.573716E-2	1.137250E-2	-1.014651E+1	3.242842E-2	4.744590E-2	7.205661E-2	3.164702E-2
10/19/2017  17:22:10.867404	-4.035809E-1	3.863173E-2	2.409852E-2	-1.013887E+1	2.732853E-2	2.709402E-2	7.714242E-2	2.655919E-2
10/19/2017  17:22:10.868404	6.920202E-1	1.319332E-2	2.409852E-2	-1.014142E+1	1.712873E-2	1.437409E-2	7.968532E-2	2.655919E-2
10/19/2017  17:22:10.869404	1.205504E+0	4.741205E-4	1.900811E-2	-1.013632E+1	2.477858E-2	1.691808E-2	7.714242E-2	4.182269E-2
10/19/2017  17:22:10.870404	7.199821E-1	1.064948E-2	1.391770E-2	-1.012614E+1	2.732853E-2	1.691808E-2	6.951371E-2	4.182269E-2
10/19/2017  17:22:10.871404	-5.993147E-1	1.319332E-2	1.137250E-2	-1.012359E+1	3.497837E-2	2.455003E-2	7.459952E-2	3.164702E-2
10/19/2017  17:22:10.872404	-9.374004E-1	2.082484E-2	1.646291E-2	-1.014651E+1	2.477858E-2	2.455003E-2	7.714242E-2	2.910311E-2
10/19/2017  17:22:10.873404	-1.214478E+0	1.319332E-2	2.664372E-2	-1.013632E+1	2.477858E-2	2.200605E-2	8.222822E-2	3.673486E-2
10/19/2017  17:22:10.874404	-1.339036E+0	5.561801E-3	3.173413E-2	-1.014142E+1	1.202884E-2	1.183011E-2	7.968532E-2	3.673486E-2
10/19/2017  17:22:10.875404	-1.654244E+0	8.105642E-3	2.155331E-2	-1.013123E+1	1.202884E-2	1.183011E-2	6.951371E-2	2.910311E-2
10/19/2017  17:22:10.876404	-9.374004E-1	1.573716E-2	8.827299E-3	-1.013632E+1	2.732853E-2	2.200605E-2	7.205661E-2	2.655919E-2
10/19/2017  17:22:10.877404	-3.247789E-1	2.082484E-2	1.646291E-2	-1.014651E+1	1.967868E-2	2.455003E-2	7.968532E-2	2.401527E-2
10/19/2017  17:22:10.878404	-8.837314E-2	1.319332E-2	1.900811E-2	-1.014905E+1	1.712873E-2	1.946206E-2	7.205661E-2	3.164702E-2
10/19/2017  17:22:10.879404	1.048187E-1	1.064948E-2	2.664372E-2	-1.013887E+1	1.712873E-2	2.455003E-2	8.477112E-2	2.655919E-2
10/19/2017  17:22:10.880404	-4.290008E-1	1.064948E-2	1.900811E-2	-1.011596E+1	2.222863E-2	1.946206E-2	6.697081E-2	3.927877E-2
10/19/2017  17:22:10.881404	-5.078028E-1	8.105642E-3	1.137250E-2	-1.013378E+1	2.732853E-2	1.946206E-2	7.205661E-2	2.401527E-2
10/19/2017  17:22:10.882404	-5.001768E-1	1.828100E-2	1.900811E-2	-1.014396E+1	2.222863E-2	1.437409E-2	7.714242E-2	2.655919E-2
								
10/19/2017  17:22:10.883404	6.589742E-1	1.319332E-2	2.664372E-2	-1.013378E+1	2.732853E-2	1.946206E-2	7.459952E-2	3.164702E-2
10/19/2017  17:22:10.884404	1.752033E+0	1.064948E-2	2.664372E-2	-1.013887E+1	1.457878E-2	1.946206E-2	7.205661E-2	3.164702E-2
10/19/2017  17:22:10.885404	1.650353E+0	4.741205E-4	1.900811E-2	-1.012869E+1	2.222863E-2	1.946206E-2	7.714242E-2	3.927877E-2
10/19/2017  17:22:10.886404	3.768124E-1	1.573716E-2	1.900811E-2	-1.013632E+1	2.477858E-2	2.455003E-2	8.222822E-2	3.164702E-2
10/19/2017  17:22:10.887404	-9.653623E-1	2.591253E-2	1.900811E-2	-1.013887E+1	3.242842E-2	2.200605E-2	6.951371E-2	2.401527E-2
10/19/2017  17:22:10.888404	-1.171264E+0	1.828100E-2	2.155331E-2	-1.014905E+1	1.967868E-2	2.709402E-2	6.697081E-2	2.655919E-2
10/19/2017  17:22:10.889404	5.979662E-1	1.319332E-2	2.918892E-2	-1.013887E+1	1.712873E-2	1.946206E-2	7.968532E-2	3.673486E-2
10/19/2017  17:22:10.890404	2.062157E+0	1.064948E-2	1.900811E-2	-1.012869E+1	2.477858E-2	2.200605E-2	6.697081E-2	3.927877E-2
10/19/2017  17:22:10.891404	2.583266E+0	1.319332E-2	1.137250E-2	-1.013123E+1	1.457878E-2	2.709402E-2	7.459952E-2	3.164702E-2
10/19/2017  17:22:10.892404	1.185168E+0	2.082484E-2	8.827299E-3	-1.012869E+1	3.242842E-2	1.946206E-2	7.205661E-2	3.164702E-2
10/19/2017  17:22:10.893404	1.274138E+0	2.336868E-2	1.137250E-2	-1.014142E+1	3.497837E-2	1.437409E-2	6.951371E-2	2.147136E-2
10/19/2017  17:22:10.894404	7.326921E-1	1.064948E-2	2.155331E-2	-1.014651E+1	1.967868E-2	2.963800E-2	8.222822E-2	3.419094E-2
10/19/2017  17:22:10.895404	-1.748011E-1	1.064948E-2	2.409852E-2	-1.012869E+1	1.457878E-2	2.709402E-2	8.222822E-2	4.182269E-2
10/19/2017  17:22:10.896404	-8.074715E-2	1.828100E-2	1.646291E-2	-1.012869E+1	2.222863E-2	1.183011E-2	7.205661E-2	3.673486E-2
10/19/2017  17:22:10.897404	-1.717794E+0	1.064948E-2	1.391770E-2	-1.013123E+1	3.242842E-2	1.654165E-3	6.697081E-2	3.419094E-2
10/19/2017  17:22:10.898404	-2.744761E+0	2.845637E-2	1.391770E-2	-1.014396E+1	2.987847E-2	2.709402E-2	7.205661E-2	3.419094E-2
10/19/2017  17:22:10.899404	-1.608488E+0	1.573716E-2	1.646291E-2	-1.014142E+1	2.222863E-2	1.946206E-2	7.459952E-2	2.401527E-2
10/19/2017  17:22:10.900404	-1.366711E-1	2.591253E-2	1.900811E-2	-1.014651E+1	1.457878E-2	2.963800E-2	7.205661E-2	3.419094E-2
10/19/2017  17:22:10.901404	5.397873E-2	1.828100E-2	3.173413E-2	-1.014142E+1	1.457878E-2	2.455003E-2	8.477112E-2	3.164702E-2
10/19/2017  17:22:10.902404	6.360962E-1	1.573716E-2	2.409852E-2	-1.012105E+1	3.242842E-2	1.946206E-2	8.477112E-2	3.419094E-2
10/19/2017  17:22:10.903404	6.335542E-1	8.105642E-3	1.391770E-2	-1.014142E+1	2.222863E-2	9.286120E-3	7.459952E-2	3.419094E-2
10/19/2017  17:22:10.904404	1.785366E-1	1.064948E-2	1.391770E-2	-1.012869E+1	3.497837E-2	1.437409E-2	7.459952E-2	3.164702E-2
10/19/2017  17:22:10.905404	3.488505E-1	1.573716E-2	1.646291E-2	-1.012869E+1	2.987847E-2	1.946206E-2	6.951371E-2	3.164702E-2
10/19/2017  17:22:10.906404	6.259282E-1	1.573716E-2	2.155331E-2	-1.013378E+1	1.712873E-2	2.963800E-2	7.205661E-2	2.401527E-2
10/19/2017  17:22:10.907404	2.217506E-1	1.319332E-2	1.137250E-2	-1.014142E+1	2.477858E-2	2.455003E-2	7.968532E-2	2.910311E-2
10/19/2017  17:22:10.908404	4.479884E-1	1.828100E-2	2.409852E-2	-1.013632E+1	1.457878E-2	2.455003E-2	7.968532E-2	3.927877E-2
10/19/2017  17:22:10.909404	-5.383067E-1	1.064948E-2	3.173413E-2	-1.013887E+1	1.457878E-2	1.183011E-2	7.968532E-2	3.927877E-2
10/19/2017  17:22:10.910404	-6.018567E-1	5.561801E-3	2.155331E-2	-1.012614E+1	2.222863E-2	1.946206E-2	7.459952E-2	3.673486E-2
10/19/2017  17:22:10.911404	-2.764810E-1	1.064948E-2	2.155331E-2	-1.011596E+1	2.477858E-2	2.455003E-2	7.968532E-2	3.419094E-2
10/19/2017  17:22:10.912404	-6.272767E-1	1.319332E-2	1.391770E-2	-1.013887E+1	2.222863E-2	1.946206E-2	7.205661E-2	2.910311E-2
10/19/2017  17:22:10.913404	-9.806143E-1	2.336868E-2	1.391770E-2	-1.015669E+1	2.222863E-2	1.946206E-2	7.459952E-2	2.401527E-2
10/19/2017  17:22:10.914404	-1.565274E+0	1.573716E-2	2.409852E-2	-1.014396E+1	1.712873E-2	2.963800E-2	8.222822E-2	3.164702E-2
10/19/2017  17:22:10.915404	-9.043544E-1	1.319332E-2	2.664372E-2	-1.013378E+1	1.457878E-2	2.200605E-2	7.714242E-2	3.927877E-2
								
10/19/2017  17:22:10.916404	9.411359E-1	4.741205E-4	1.646291E-2	-1.012614E+1	1.967868E-2	1.437409E-2	7.714242E-2	3.927877E-2
10/19/2017  17:22:10.917404	7.301501E-1	1.319332E-2	1.900811E-2	-1.013123E+1	2.477858E-2	1.691808E-2	7.459952E-2	3.164702E-2
10/19/2017  17:22:10.918404	3.386538E+0	2.591253E-2	1.900811E-2	-1.013123E+1	3.242842E-2	2.455003E-2	7.205661E-2	3.419094E-2
10/19/2017  17:22:10.919404	2.898474E+0	1.573716E-2	1.646291E-2	-1.012869E+1	2.222863E-2	1.946206E-2	6.697081E-2	2.655919E-2
10/19/2017  17:22:10.920404	3.223850E+0	1.828100E-2	1.137250E-2	-1.013378E+1	1.457878E-2	1.691808E-2	7.459952E-2	3.164702E-2
10/19/2017  17:22:10.921404	3.434836E+0	2.082484E-2	2.409852E-2	-1.012105E+1	1.967868E-2	1.946206E-2	8.222822E-2	3.164702E-2
10/19/2017  17:22:10.922404	2.758664E+0	8.105642E-3	2.409852E-2	-1.013123E+1	2.477858E-2	1.183011E-2	7.714242E-2	3.673486E-2
10/19/2017  17:22:10.923404	-8.611404E-1	1.573716E-2	1.900811E-2	-1.013123E+1	2.477858E-2	1.437409E-2	7.459952E-2	4.182269E-2
10/19/2017  17:22:10.924404	-3.120689E-1	1.319332E-2	1.900811E-2	-1.014396E+1	2.222863E-2	1.691808E-2	7.968532E-2	3.673486E-2
10/19/2017  17:22:10.925404	-3.126060E+0	5.561801E-3	1.137250E-2	-1.014396E+1	2.477858E-2	1.946206E-2	6.951371E-2	2.910311E-2
10/19/2017  17:22:10.926404	-3.804774E+0	1.828100E-2	1.137250E-2	-1.014651E+1	2.732853E-2	2.200605E-2	7.205661E-2	1.892744E-2
10/19/2017  17:22:10.927404	-2.315163E+0	2.082484E-2	2.409852E-2	-1.013632E+1	2.732853E-2	1.946206E-2	7.714242E-2	3.164702E-2
10/19/2017  17:22:10.928404	-1.206852E+0	1.064948E-2	2.664372E-2	-1.013887E+1	1.457878E-2	2.200605E-2	7.968532E-2	3.419094E-2
10/19/2017  17:22:10.929404	-1.041622E+0	-2.069720E-3	2.409852E-2	-1.014396E+1	9.478889E-3	1.183011E-2	7.714242E-2	3.673486E-2
10/19/2017  17:22:10.930404	-3.679929E-1	8.105642E-3	2.155331E-2	-1.012614E+1	2.222863E-2	1.437409E-2	7.714242E-2	3.927877E-2
10/19/2017  17:22:10.931404	1.223298E+0	1.064948E-2	1.137250E-2	-1.012614E+1	2.222863E-2	1.946206E-2	7.205661E-2	2.655919E-2
10/19/2017  17:22:10.932404	1.642727E+0	1.573716E-2	8.827299E-3	-1.013887E+1	2.477858E-2	1.946206E-2	7.459952E-2	2.910311E-2
10/19/2017  17:22:10.933404	6.462642E-1	2.082484E-2	2.155331E-2	-1.013887E+1	4.262821E-2	2.963800E-2	7.968532E-2	3.927877E-2
10/19/2017  17:22:10.934404	5.652073E-2	1.319332E-2	2.155331E-2	-1.013378E+1	2.222863E-2	2.200605E-2	7.714242E-2	3.164702E-2
10/19/2017  17:22:10.935404	-2.315163E+0	1.064948E-2	2.155331E-2	-1.014142E+1	1.202884E-2	1.691808E-2	7.205661E-2	2.147136E-2
10/19/2017  17:22:10.936404	-1.509350E+0	8.105642E-3	1.900811E-2	-1.012614E+1	1.712873E-2	1.437409E-2	8.222822E-2	3.673486E-2
10/19/2017  17:22:10.937404	2.430747E+0	1.064948E-2	2.664372E-2	-1.012869E+1	2.477858E-2	1.691808E-2	7.714242E-2	4.945444E-2
10/19/2017  17:22:10.938404	4.660079E+0	1.573716E-2	2.155331E-2	-1.013632E+1	2.222863E-2	1.691808E-2	7.714242E-2	2.910311E-2
10/19/2017  17:22:10.939404	3.762753E+0	2.336868E-2	1.900811E-2	-1.012614E+1	2.732853E-2	2.709402E-2	6.951371E-2	3.164702E-2
10/19/2017  17:22:10.940404	6.284702E-1	2.082484E-2	1.646291E-2	-1.012869E+1	1.967868E-2	2.963800E-2	7.205661E-2	2.655919E-2
10/19/2017  17:22:10.941404	-2.338041E+0	1.064948E-2	1.391770E-2	-1.013632E+1	2.222863E-2	2.455003E-2	7.459952E-2	2.147136E-2
10/19/2017  17:22:10.942404	-2.930327E+0	1.573716E-2	2.918892E-2	-1.015160E+1	1.712873E-2	1.946206E-2	8.477112E-2	3.164702E-2
10/19/2017  17:22:10.943404	-1.944031E+0	1.064948E-2	3.173413E-2	-1.013887E+1	1.457878E-2	1.691808E-2	8.477112E-2	3.927877E-2
10/19/2017  17:22:10.944404	-1.849691E-1	5.561801E-3	1.900811E-2	-1.013378E+1	2.222863E-2	1.946206E-2	7.205661E-2	3.673486E-2
10/19/2017  17:22:10.945404	5.827143E-1	1.064948E-2	8.827299E-3	-1.013123E+1	1.712873E-2	2.455003E-2	7.714242E-2	3.164702E-2
10/19/2017  17:22:10.946404	-1.010831E-1	1.828100E-2	1.137250E-2	-1.013378E+1	2.987847E-2	1.946206E-2	7.459952E-2	3.164702E-2
10/19/2017  17:22:10.947404	-1.397502E+0	1.828100E-2	1.391770E-2	-1.014142E+1	3.242842E-2	2.200605E-2	7.205661E-2	2.655919E-2
10/19/2017  17:22:10.948404	-1.382250E+0	1.828100E-2	2.664372E-2	-1.014651E+1	2.477858E-2	2.709402E-2	7.205661E-2	2.147136E-2
								
10/19/2017  17:22:10.949404	-1.516976E+0	1.573716E-2	4.191494E-2	-1.013632E+1	1.712873E-2	2.455003E-2	8.222822E-2	3.419094E-2
10/19/2017  17:22:10.950404	-4.798408E-1	1.573716E-2	2.155331E-2	-1.013632E+1	1.967868E-2	2.200605E-2	6.442791E-2	2.655919E-2
10/19/2017  17:22:10.951404	5.674623E-1	8.105642E-3	6.282096E-3	-1.012105E+1	1.202884E-2	9.286120E-3	7.714242E-2	3.419094E-2
10/19/2017  17:22:10.952404	1.584261E+0	2.082484E-2	1.900811E-2	-1.013123E+1	2.222863E-2	1.946206E-2	7.459952E-2	3.164702E-2
10/19/2017  17:22:10.953404	2.418037E+0	1.319332E-2	1.137250E-2	-1.013378E+1	2.987847E-2	3.472597E-2	6.951371E-2	3.164702E-2
10/19/2017  17:22:10.954404	8.242040E-1	1.064948E-2	1.391770E-2	-1.014651E+1	2.477858E-2	2.709402E-2	6.951371E-2	2.401527E-2
10/19/2017  17:22:10.955404	7.708221E-1	2.082484E-2	1.900811E-2	-1.013632E+1	2.222863E-2	3.472597E-2	7.968532E-2	2.401527E-2
10/19/2017  17:22:10.956404	8.222774E-3	1.319332E-2	2.664372E-2	-1.013632E+1	1.202884E-2	1.946206E-2	8.222822E-2	2.910311E-2
10/19/2017  17:22:10.957404	-8.052165E-1	8.105642E-3	2.155331E-2	-1.012105E+1	1.967868E-2	1.183011E-2	8.477112E-2	3.164702E-2
10/19/2017  17:22:10.958404	-6.984526E-1	1.828100E-2	1.900811E-2	-1.014142E+1	2.987847E-2	1.946206E-2	7.714242E-2	4.182269E-2
10/19/2017  17:22:10.959404	-1.415296E+0	1.319332E-2	1.900811E-2	-1.014142E+1	1.967868E-2	1.946206E-2	7.459952E-2	3.419094E-2
10/19/2017  17:22:10.960404	-9.755303E-1	1.064948E-2	1.391770E-2	-1.013378E+1	2.477858E-2	1.946206E-2	6.697081E-2	2.910311E-2
10/19/2017  17:22:10.961404	-6.857426E-1	2.082484E-2	8.827299E-3	-1.014142E+1	3.242842E-2	2.963800E-2	7.205661E-2	2.401527E-2
10/19/2017  17:22:10.962404	-7.137046E-1	2.591253E-2	1.900811E-2	-1.014651E+1	3.242842E-2	2.709402E-2	8.731403E-2	3.164702E-2
10/19/2017  17:22:10.963404	1.276680E+0	1.064948E-2	2.409852E-2	-1.014651E+1	1.712873E-2	1.946206E-2	7.968532E-2	3.164702E-2
10/19/2017  17:22:10.964404	5.000706E+0	1.064948E-2	2.155331E-2	-1.013123E+1	1.712873E-2	2.200605E-2	7.968532E-2	3.927877E-2
10/19/2017  17:22:10.965404	3.828845E+0	8.105642E-3	2.155331E-2	-1.011850E+1	1.967868E-2	1.691808E-2	7.459952E-2	3.927877E-2
10/19/2017  17:22:10.966404	-1.743214E+0	1.064948E-2	1.646291E-2	-1.012869E+1	1.457878E-2	1.183011E-2	6.442791E-2	3.164702E-2
10/19/2017  17:22:10.967404	-3.047258E+0	1.573716E-2	6.282096E-3	-1.014651E+1	2.987847E-2	1.946206E-2	7.205661E-2	3.164702E-2
10/19/2017  17:22:10.968404	-2.096551E+0	1.319332E-2	1.900811E-2	-1.014651E+1	1.967868E-2	2.455003E-2	8.222822E-2	4.945444E-2
10/19/2017  17:22:10.969404	-1.351746E+0	1.828100E-2	1.391770E-2	-1.014651E+1	2.987847E-2	2.709402E-2	7.459952E-2	2.401527E-2
10/19/2017  17:22:10.970404	-8.865604E-1	1.573716E-2	1.646291E-2	-1.014396E+1	2.222863E-2	2.709402E-2	7.459952E-2	1.383961E-2
10/19/2017  17:22:10.971404	-3.984969E-1	1.573716E-2	1.646291E-2	-1.012869E+1	2.222863E-2	2.963800E-2	7.459952E-2	3.164702E-2
10/19/2017  17:22:10.972404	-2.078470E-1	2.082484E-2	1.900811E-2	-1.013632E+1	1.712873E-2	1.946206E-2	8.477112E-2	2.910311E-2
10/19/2017  17:22:10.973404	-5.278517E-2	1.319332E-2	2.155331E-2	-1.014905E+1	2.477858E-2	2.200605E-2	7.968532E-2	3.164702E-2
10/19/2017  17:22:10.974404	1.022767E-1	8.105642E-3	2.409852E-2	-1.013123E+1	2.222863E-2	2.200605E-2	7.714242E-2	3.927877E-2
10/19/2017  17:22:10.975404	4.635274E-2	1.064948E-2	1.137250E-2	-1.013123E+1	2.732853E-2	1.691808E-2	6.188501E-2	2.910311E-2
10/19/2017  17:22:10.976404	9.719269E-2	1.319332E-2	3.736893E-3	-1.013632E+1	2.477858E-2	2.963800E-2	7.205661E-2	2.910311E-2
10/19/2017  17:22:10.977404	3.183465E-1	2.082484E-2	1.137250E-2	-1.013378E+1	2.222863E-2	2.963800E-2	8.222822E-2	2.910311E-2
10/19/2017  17:22:10.978404	2.093276E-2	2.591253E-2	2.918892E-2	-1.014142E+1	2.477858E-2	1.946206E-2	7.459952E-2	3.164702E-2
10/19/2017  17:22:10.979404	7.174401E-1	1.064948E-2	2.409852E-2	-1.014142E+1	9.478889E-3	1.946206E-2	8.477112E-2	3.927877E-2
10/19/2017  17:22:10.980404	1.993523E+0	1.064948E-2	2.918892E-2	-1.013632E+1	1.202884E-2	1.691808E-2	8.477112E-2	3.164702E-2
10/19/2017  17:22:10.981404	1.007228E+0	8.105642E-3	1.900811E-2	-1.012359E+1	1.967868E-2	1.183011E-2	7.714242E-2	3.164702E-2
								
10/19/2017  17:22:10.982404	-5.789787E-1	8.105642E-3	2.155331E-2	-1.013632E+1	2.477858E-2	1.691808E-2	7.459952E-2	3.419094E-2
10/19/2017  17:22:10.983404	9.465070E-2	8.105642E-3	1.137250E-2	-1.013887E+1	2.477858E-2	1.946206E-2	7.714242E-2	3.419094E-2
10/19/2017  17:22:10.984404	-1.620911E-1	1.064948E-2	1.900811E-2	-1.013887E+1	2.477858E-2	4.744590E-2	7.459952E-2	3.419094E-2
10/19/2017  17:22:10.985404	-1.244982E+0	8.105642E-3	2.664372E-2	-1.013887E+1	9.478889E-3	2.200605E-2	8.222822E-2	2.655919E-2
10/19/2017  17:22:10.986404	-1.494098E+0	1.573716E-2	1.900811E-2	-1.014142E+1	2.477858E-2	1.946206E-2	7.714242E-2	3.164702E-2
10/19/2017  17:22:10.987404	-2.353293E+0	3.017961E-3	1.900811E-2	-1.012869E+1	1.967868E-2	1.946206E-2	8.222822E-2	3.164702E-2
10/19/2017  17:22:10.988404	-1.402586E+0	1.573716E-2	1.646291E-2	-1.014396E+1	2.987847E-2	2.200605E-2	7.459952E-2	3.164702E-2
10/19/2017  17:22:10.989404	1.119076E+0	1.319332E-2	1.646291E-2	-1.014396E+1	2.222863E-2	2.963800E-2	7.459952E-2	2.910311E-2
10/19/2017  17:22:10.990404	5.000706E+0	1.319332E-2	1.391770E-2	-1.012869E+1	2.477858E-2	1.946206E-2	7.459952E-2	3.164702E-2
10/19/2017  17:22:10.991404	4.909194E+0	-9.701241E-3	2.155331E-2	-1.012105E+1	2.477858E-2	1.437409E-2	8.731403E-2	3.164702E-2
10/19/2017  17:22:10.992404	1.345314E+0	1.064948E-2	1.391770E-2	-1.012869E+1	1.967868E-2	1.437409E-2	7.968532E-2	3.673486E-2
10/19/2017  17:22:10.993404	-2.429553E+0	5.561801E-3	2.409852E-2	-1.013123E+1	5.027806E-2	1.691808E-2	7.459952E-2	3.673486E-2
10/19/2017  17:22:10.994404	-9.475684E-1	1.573716E-2	1.646291E-2	-1.013378E+1	2.732853E-2	1.946206E-2	7.205661E-2	2.910311E-2
10/19/2017  17:22:10.995404	-1.366998E+0	1.064948E-2	1.646291E-2	-1.014142E+1	1.202884E-2	2.200605E-2	7.205661E-2	2.910311E-2
10/19/2017  17:22:10.996404	-1.272944E+0	2.082484E-2	1.391770E-2	-1.015415E+1	2.477858E-2	2.455003E-2	7.459952E-2	3.164702E-2
10/19/2017  17:22:10.997404	-6.374446E-1	2.845637E-2	2.155331E-2	-1.013887E+1	2.222863E-2	1.946206E-2	7.205661E-2	2.910311E-2
10/19/2017  17:22:10.998404	-5.205127E-1	1.573716E-2	2.155331E-2	-1.014905E+1	1.967868E-2	1.946206E-2	7.968532E-2	3.164702E-2
10/19/2017  17:22:10.999404	-4.366268E-1	1.064948E-2	2.155331E-2	-1.013887E+1	2.477858E-2	1.437409E-2	7.459952E-2	5.708619E-2
10/19/2017  17:22:11.000404	-6.323606E-1	1.064948E-2	1.391770E-2	-1.011341E+1	2.477858E-2	1.691808E-2	6.697081E-2	3.927877E-2
10/19/2017  17:22:11.001404	-6.832006E-1	1.828100E-2	1.137250E-2	-1.014396E+1	2.477858E-2	2.963800E-2	6.951371E-2	1.383961E-2
10/19/2017  17:22:11.002404	-3.857869E-1	1.828100E-2	1.900811E-2	-1.015924E+1	2.222863E-2	1.946206E-2	8.731403E-2	2.655919E-2
10/19/2017  17:22:11.003404	5.267903E-1	2.082484E-2	1.900811E-2	-1.014142E+1	1.967868E-2	2.200605E-2	7.714242E-2	3.164702E-2
10/19/2017  17:22:11.004404	8.419980E-1	1.573716E-2	2.664372E-2	-1.013632E+1	1.457878E-2	9.286120E-3	9.239983E-2	3.927877E-2
10/19/2017  17:22:11.005404	1.602055E+0	3.017961E-3	1.646291E-2	-1.012359E+1	1.712873E-2	1.437409E-2	7.714242E-2	3.927877E-2
10/19/2017  17:22:11.006404	2.161295E+0	1.319332E-2	1.900811E-2	-1.013123E+1	2.477858E-2	2.200605E-2	8.731403E-2	3.164702E-2
10/19/2017  17:22:11.007404	1.652895E+0	1.573716E-2	6.282096E-3	-1.013887E+1	1.712873E-2	1.691808E-2	6.697081E-2	3.164702E-2
10/19/2017  17:22:11.008404	1.604597E+0	2.082484E-2	1.900811E-2	-1.014396E+1	2.222863E-2	2.963800E-2	6.951371E-2	3.164702E-2
10/19/2017  17:22:11.009404	3.439920E+0	2.082484E-2	4.191494E-2	-1.014142E+1	2.477858E-2	3.218199E-2	8.222822E-2	2.147136E-2
10/19/2017  17:22:11.010404	3.289942E+0	1.319332E-2	2.664372E-2	-1.012869E+1	1.967868E-2	1.946206E-2	8.222822E-2	3.164702E-2
10/19/2017  17:22:11.011404	-4.515918E-2	8.105642E-3	2.155331E-2	-1.013378E+1	9.478889E-3	6.742135E-3	7.968532E-2	3.419094E-2
10/19/2017  17:22:11.012404	-2.737135E+0	2.082484E-2	2.155331E-2	-1.014142E+1	1.712873E-2	2.200605E-2	7.459952E-2	3.164702E-2
10/19/2017  17:22:11.013404	-3.359924E+0	1.573716E-2	1.391770E-2	-1.015160E+1	3.242842E-2	2.709402E-2	6.951371E-2	3.419094E-2
10/19/2017  17:22:11.014404	-2.030459E+0	2.082484E-2	1.137250E-2	-1.015415E+1	2.222863E-2	2.709402E-2	6.951371E-2	3.164702E-2
								
10/19/2017  17:22:11.015404	-9.856983E-1	2.082484E-2	1.900811E-2	-1.014142E+1	2.477858E-2	3.981394E-2	7.205661E-2	3.419094E-2
10/19/2017  17:22:11.016404	-8.738504E-1	4.117557E-2	2.918892E-2	-1.013887E+1	1.202884E-2	2.709402E-2	8.222822E-2	2.910311E-2
10/19/2017  17:22:11.017404	-5.332227E-1	1.319332E-2	2.155331E-2	-1.013887E+1	1.457878E-2	1.946206E-2	7.968532E-2	3.164702E-2
10/19/2017  17:22:11.018404	5.143673E-2	5.561801E-3	1.900811E-2	-1.013887E+1	2.477858E-2	1.691808E-2	7.714242E-2	4.182269E-2
10/19/2017  17:22:11.019404	-1.442971E-1	1.064948E-2	1.646291E-2	-1.012614E+1	2.477858E-2	1.691808E-2	7.205661E-2	4.182269E-2
10/19/2017  17:22:11.020404	1.099027E-1	1.064948E-2	1.391770E-2	-1.012869E+1	2.987847E-2	1.946206E-2	6.951371E-2	2.401527E-2
10/19/2017  17:22:11.021404	-4.010389E-1	2.082484E-2	1.900811E-2	-1.014651E+1	1.967868E-2	2.963800E-2	7.968532E-2	2.655919E-2
10/19/2017  17:22:11.022404	-4.007518E-2	2.591253E-2	1.900811E-2	-1.013632E+1	3.752832E-2	2.709402E-2	7.968532E-2	2.910311E-2
10/19/2017  17:22:11.023404	-8.052165E-1	1.319332E-2	2.409852E-2	-1.014142E+1	1.712873E-2	1.946206E-2	8.222822E-2	3.419094E-2
10/19/2017  17:22:11.024404	-6.933686E-1	1.064948E-2	1.900811E-2	-1.013887E+1	4.007827E-2	2.200605E-2	7.714242E-2	4.436661E-2
10/19/2017  17:22:11.025404	3.335985E-1	1.064948E-2	2.155331E-2	-1.011596E+1	1.967868E-2	1.946206E-2	7.714242E-2	3.673486E-2
10/19/2017  17:22:11.026404	5.293323E-1	1.064948E-2	1.646291E-2	-1.013632E+1	2.222863E-2	1.183011E-2	7.459952E-2	2.147136E-2
10/19/2017  17:22:11.027404	5.572943E-1	8.105642E-3	3.736893E-3	-1.012869E+1	2.732853E-2	1.691808E-2	7.205661E-2	2.910311E-2
10/19/2017  17:22:11.028404	-1.748011E-1	2.845637E-2	1.646291E-2	-1.013887E+1	2.987847E-2	2.709402E-2	6.697081E-2	3.927877E-2
10/19/2017  17:22:11.029404	-5.357647E-1	2.082484E-2	1.900811E-2	-1.012359E+1	1.712873E-2	2.963800E-2	7.714242E-2	2.147136E-2
10/19/2017  17:22:11.030404	-8.255525E-1	2.082484E-2	2.409852E-2	-1.014651E+1	1.202884E-2	2.963800E-2	8.222822E-2	2.401527E-2
10/19/2017  17:22:11.031404	-2.358090E-1	1.573716E-2	1.646291E-2	-1.012614E+1	1.712873E-2	1.691808E-2	7.459952E-2	2.910311E-2
10/19/2017  17:22:11.032404	9.004640E-1	1.064948E-2	1.137250E-2	-1.012614E+1	2.477858E-2	1.437409E-2	7.459952E-2	3.927877E-2
10/19/2017  17:22:11.033404	1.462245E+0	5.561801E-3	1.391770E-2	-1.012869E+1	2.987847E-2	1.183011E-2	7.205661E-2	3.927877E-2
10/19/2017  17:22:11.034404	1.182626E+0	1.064948E-2	1.900811E-2	-1.013123E+1	3.242842E-2	2.455003E-2	6.951371E-2	3.164702E-2
10/19/2017  17:22:11.035404	2.420579E+0	2.082484E-2	1.900811E-2	-1.013378E+1	1.712873E-2	1.946206E-2	7.205661E-2	2.147136E-2
10/19/2017  17:22:11.036404	2.397701E+0	2.591253E-2	1.391770E-2	-1.013887E+1	2.222863E-2	2.200605E-2	7.459952E-2	3.164702E-2
10/19/2017  17:22:11.037404	-4.722148E-1	1.319332E-2	2.409852E-2	-1.013378E+1	1.712873E-2	1.946206E-2	7.968532E-2	3.164702E-2
10/19/2017  17:22:11.038404	-2.775265E+0	1.319332E-2	3.173413E-2	-1.013123E+1	2.222863E-2	1.437409E-2	7.968532E-2	3.673486E-2
10/19/2017  17:22:11.039404	-2.521065E+0	3.017961E-3	1.900811E-2	-1.013123E+1	3.242842E-2	1.437409E-2	6.697081E-2	3.673486E-2
10/19/2017  17:22:11.040404	-2.424469E+0	1.828100E-2	1.900811E-2	-1.013632E+1	2.477858E-2	2.455003E-2	6.951371E-2	3.164702E-2
10/19/2017  17:22:11.041404	-6.145667E-1	2.336868E-2	1.391770E-2	-1.013887E+1	3.497837E-2	2.709402E-2	7.205661E-2	2.401527E-2
10/19/2017  17:22:11.042404	-1.465521E-2	1.573716E-2	1.646291E-2	-1.014142E+1	2.477858E-2	2.709402E-2	7.714242E-2	2.910311E-2
10/19/2017  17:22:11.043404	-6.043987E-1	4.741205E-4	2.918892E-2	-1.013632E+1	1.457878E-2	1.946206E-2	7.968532E-2	2.910311E-2
10/19/2017  17:22:11.044404	-2.027630E-1	8.105642E-3	2.155331E-2	-1.013123E+1	2.477858E-2	2.709402E-2	7.714242E-2	4.182269E-2
10/19/2017  17:22:11.045404	-5.967727E-1	2.845637E-2	1.391770E-2	-1.012359E+1	2.477858E-2	1.691808E-2	6.951371E-2	2.910311E-2
10/19/2017  17:22:11.046404	-8.789344E-1	1.064948E-2	1.137250E-2	-1.014651E+1	2.732853E-2	1.691808E-2	7.205661E-2	2.655919E-2
10/19/2017  17:22:11.047404	5.140803E-1	3.100021E-2	1.391770E-2	-1.014142E+1	2.732853E-2	2.455003E-2	6.951371E-2	2.401527E-2
								
10/19/2017  17:22:11.048404	5.598363E-1	1.828100E-2	1.900811E-2	-1.014396E+1	1.967868E-2	2.709402E-2	7.968532E-2	2.655919E-2
10/19/2017  17:22:11.049404	3.364275E-2	-4.613560E-3	2.664372E-2	-1.014651E+1	9.478889E-3	2.200605E-2	7.968532E-2	4.182269E-2
10/19/2017  17:22:11.050404	1.241092E+0	1.319332E-2	2.155331E-2	-1.014142E+1	2.477858E-2	1.946206E-2	7.459952E-2	3.927877E-2
10/19/2017  17:22:11.051404	3.091666E+0	1.064948E-2	2.409852E-2	-1.012359E+1	4.262821E-2	1.946206E-2	7.968532E-2	2.910311E-2
10/19/2017  17:22:11.052404	4.588903E+0	1.319332E-2	1.646291E-2	-1.012869E+1	2.732853E-2	1.691808E-2	6.697081E-2	3.164702E-2
10/19/2017  17:22:11.053404	1.718987E+0	2.082484E-2	2.155331E-2	-1.013378E+1	9.478889E-3	3.218199E-2	7.205661E-2	2.655919E-2
10/19/2017  17:22:11.054404	-5.688107E-1	2.336868E-2	3.173413E-2	-1.012869E+1	1.712873E-2	2.455003E-2	8.222822E-2	3.419094E-2
10/19/2017  17:22:11.055404	-3.501989E-1	5.561801E-3	2.664372E-2	-1.013123E+1	1.457878E-2	1.437409E-2	8.222822E-2	3.164702E-2
10/19/2017  17:22:11.056404	3.399248E+0	1.064948E-2	1.137250E-2	-1.013632E+1	2.732853E-2	9.286120E-3	7.714242E-2	3.164702E-2
10/19/2017  17:22:11.057404	5.005790E+0	1.319332E-2	1.646291E-2	-1.012614E+1	2.222863E-2	2.200605E-2	7.714242E-2	4.691052E-2
10/19/2017  17:22:11.058404	5.003248E+0	1.573716E-2	1.391770E-2	-1.014142E+1	2.222863E-2	2.963800E-2	7.205661E-2	2.910311E-2
10/19/2017  17:22:11.059404	-1.082294E+0	1.064948E-2	2.409852E-2	-1.013887E+1	1.457878E-2	2.200605E-2	8.222822E-2	4.945444E-2
10/19/2017  17:22:11.060404	-3.578536E+0	1.064948E-2	1.646291E-2	-1.011850E+1	1.967868E-2	1.946206E-2	7.968532E-2	3.673486E-2
10/19/2017  17:22:11.061404	-4.933421E+0	1.319332E-2	1.137250E-2	-1.015669E+1	2.987847E-2	1.946206E-2	6.951371E-2	3.419094E-2
10/19/2017  17:22:11.062404	-3.947126E+0	1.573716E-2	2.155331E-2	-1.017197E+1	2.477858E-2	1.691808E-2	6.951371E-2	2.401527E-2
10/19/2017  17:22:11.063404	-1.074668E+0	1.319332E-2	3.173413E-2	-1.014905E+1	1.712873E-2	3.218199E-2	8.222822E-2	2.910311E-2
10/19/2017  17:22:11.064404	-5.179708E-1	5.561801E-3	2.155331E-2	-1.012869E+1	1.457878E-2	2.200605E-2	7.714242E-2	3.927877E-2
10/19/2017  17:22:11.065404	-2.787975E+0	4.741205E-4	1.646291E-2	-1.013123E+1	2.477858E-2	1.691808E-2	7.459952E-2	3.673486E-2
10/19/2017  17:22:11.066404	-1.799138E+0	1.319332E-2	1.137250E-2	-1.013123E+1	2.732853E-2	1.691808E-2	8.731403E-2	3.164702E-2
10/19/2017  17:22:11.067404	-1.341578E+0	2.591253E-2	2.918892E-2	-1.014396E+1	3.497837E-2	2.200605E-2	6.951371E-2	3.164702E-2
10/19/2017  17:22:11.068404	4.784923E-1	1.828100E-2	2.409852E-2	-1.014396E+1	1.967868E-2	2.709402E-2	7.459952E-2	3.164702E-2
10/19/2017  17:22:11.069404	1.464787E+0	1.064948E-2	1.646291E-2	-1.013632E+1	9.478889E-3	1.946206E-2	8.477112E-2	3.927877E-2
10/19/2017  17:22:11.070404	1.319894E+0	1.573716E-2	1.900811E-2	-1.012614E+1	2.477858E-2	6.742135E-3	7.968532E-2	3.927877E-2
10/19/2017  17:22:11.071404	1.223298E+0	1.573716E-2	1.137250E-2	-1.013887E+1	2.477858E-2	1.691808E-2	6.951371E-2	3.164702E-2
10/19/2017  17:22:11.072404	-2.917330E-1	2.336868E-2	1.900811E-2	-1.014651E+1	2.477858E-2	2.963800E-2	7.714242E-2	2.910311E-2
10/19/2017  17:22:11.073404	-2.230990E-1	1.573716E-2	2.409852E-2	-1.013887E+1	1.967868E-2	2.200605E-2	8.222822E-2	3.673486E-2
10/19/2017  17:22:11.074404	-7.899645E-1	-2.069720E-3	2.664372E-2	-1.012869E+1	1.457878E-2	1.691808E-2	7.968532E-2	4.182269E-2
10/19/2017  17:22:11.075404	-5.078028E-1	8.105642E-3	1.391770E-2	-1.013378E+1	2.987847E-2	4.198150E-3	7.205661E-2	3.419094E-2
10/19/2017  17:22:11.076404	-4.391688E-1	3.100021E-2	1.391770E-2	-1.014396E+1	3.497837E-2	2.455003E-2	7.459952E-2	3.419094E-2
10/19/2017  17:22:11.077404	-3.756189E-1	2.082484E-2	1.646291E-2	-1.014651E+1	2.222863E-2	2.455003E-2	7.714242E-2	3.164702E-2
10/19/2017  17:22:11.078404	-6.041116E-2	2.082484E-2	2.664372E-2	-1.014142E+1	6.928941E-3	2.963800E-2	8.222822E-2	3.419094E-2
10/19/2017  17:22:11.079404	-4.007518E-2	1.573716E-2	2.918892E-2	-1.012869E+1	1.457878E-2	2.455003E-2	8.222822E-2	4.182269E-2
10/19/2017  17:22:11.080404	7.431471E-2	8.105642E-3	1.137250E-2	-1.012359E+1	2.477858E-2	1.437409E-2	7.968532E-2	3.673486E-2
								
10/19/2017  17:22:11.081404	-1.925950E-1	1.319332E-2	1.137250E-2	-1.013123E+1	2.987847E-2	1.946206E-2	7.205661E-2	2.910311E-2
10/19/2017  17:22:11.082404	-2.688550E-1	2.082484E-2	1.391770E-2	-1.014651E+1	3.497837E-2	2.455003E-2	6.697081E-2	2.655919E-2
10/19/2017  17:22:11.083404	-2.332670E-1	2.082484E-2	2.409852E-2	-1.014651E+1	1.712873E-2	2.709402E-2	8.222822E-2	2.401527E-2
10/19/2017  17:22:11.084404	2.700485E-1	1.064948E-2	2.409852E-2	-1.013123E+1	-7.209035E-4	1.691808E-2	7.714242E-2	4.691052E-2
10/19/2017  17:22:11.085404	-1.442971E-1	1.064948E-2	1.646291E-2	-1.012869E+1	2.222863E-2	1.437409E-2	7.968532E-2	3.927877E-2
10/19/2017  17:22:11.086404	1.632846E-1	1.319332E-2	1.137250E-2	-1.013378E+1	2.732853E-2	1.946206E-2	7.205661E-2	4.182269E-2
10/19/2017  17:22:11.087404	1.404067E-1	2.082484E-2	1.137250E-2	-1.014651E+1	2.222863E-2	1.946206E-2	6.951371E-2	2.655919E-2
10/19/2017  17:22:11.088404	-9.221484E-1	1.828100E-2	2.664372E-2	-1.013887E+1	1.457878E-2	2.455003E-2	7.968532E-2	3.927877E-2
10/19/2017  17:22:11.089404	-5.738947E-1	8.105642E-3	2.664372E-2	-1.012869E+1	1.712873E-2	1.437409E-2	8.222822E-2	4.182269E-2
10/19/2017  17:22:11.090404	7.886161E-1	8.105642E-3	1.900811E-2	-1.013123E+1	1.967868E-2	1.691808E-2	7.459952E-2	2.910311E-2
10/19/2017  17:22:11.091404	7.682801E-1	1.573716E-2	1.137250E-2	-1.012359E+1	2.987847E-2	1.437409E-2	7.968532E-2	3.164702E-2
10/19/2017  17:22:11.092404	2.497126E-1	1.319332E-2	1.900811E-2	-1.013123E+1	3.242842E-2	2.455003E-2	7.205661E-2	2.655919E-2
10/19/2017  17:22:11.093404	-2.002210E-1	1.828100E-2	2.664372E-2	-1.014142E+1	1.712873E-2	3.472597E-2	6.951371E-2	2.910311E-2
10/19/2017  17:22:11.094404	-4.487215E-3	8.105642E-3	1.900811E-2	-1.013123E+1	1.457878E-2	2.200605E-2	8.222822E-2	3.164702E-2
10/19/2017  17:22:11.095404	7.939871E-2	1.828100E-2	1.900811E-2	-1.013632E+1	1.967868E-2	2.200605E-2	8.731403E-2	3.673486E-2
10/19/2017  17:22:11.096404	1.759659E+0	1.828100E-2	2.918892E-2	-1.012614E+1	2.222863E-2	1.437409E-2	7.714242E-2	3.419094E-2
10/19/2017  17:22:11.097404	3.640737E+0	3.017961E-3	1.137250E-2	-1.012614E+1	2.987847E-2	1.691808E-2	7.205661E-2	3.419094E-2
10/19/2017  17:22:11.098404	3.541600E+0	2.845637E-2	2.664372E-2	-1.014142E+1	2.477858E-2	2.455003E-2	6.951371E-2	3.164702E-2
10/19/2017  17:22:11.099404	8.674180E-1	1.319332E-2	1.900811E-2	-1.013887E+1	1.712873E-2	2.455003E-2	7.459952E-2	2.655919E-2
10/19/2017  17:22:11.100404	-2.597325E+0	2.082484E-2	2.409852E-2	-1.014905E+1	9.478889E-3	1.183011E-2	8.222822E-2	3.164702E-2
10/19/2017  17:22:11.101404	-2.973541E+0	1.573716E-2	2.664372E-2	-1.014905E+1	1.967868E-2	1.437409E-2	8.477112E-2	3.927877E-2
10/19/2017  17:22:11.102404	-2.094009E+0	8.105642E-3	2.155331E-2	-1.013632E+1	2.987847E-2	2.709402E-2	7.459952E-2	4.436661E-2
10/19/2017  17:22:11.103404	-1.798851E-1	5.561801E-3	1.137250E-2	-1.013887E+1	2.477858E-2	1.946206E-2	6.951371E-2	2.910311E-2
10/19/2017  17:22:11.104404	4.479884E-1	2.082484E-2	1.137250E-2	-1.013632E+1	2.477858E-2	3.218199E-2	7.205661E-2	2.910311E-2
10/19/2017  17:22:11.105404	1.937886E-1	3.354405E-2	1.900811E-2	-1.013632E+1	2.477858E-2	2.455003E-2	7.714242E-2	2.401527E-2
10/19/2017  17:22:11.106404	1.759946E-1	1.573716E-2	2.664372E-2	-1.013632E+1	1.457878E-2	9.286120E-3	8.222822E-2	2.910311E-2
10/19/2017  17:22:11.107404	3.335985E-1	8.105642E-3	1.900811E-2	-1.014905E+1	2.732853E-2	2.200605E-2	7.968532E-2	3.419094E-2
10/19/2017  17:22:11.108404	9.309679E-1	8.105642E-3	2.155331E-2	-1.012614E+1	2.477858E-2	1.946206E-2	7.714242E-2	4.182269E-2
10/19/2017  17:22:11.109404	2.339235E+0	1.064948E-2	1.137250E-2	-1.012359E+1	1.457878E-2	1.183011E-2	6.951371E-2	3.164702E-2
10/19/2017  17:22:11.110404	2.906100E+0	2.082484E-2	8.827299E-3	-1.013632E+1	2.987847E-2	1.946206E-2	6.951371E-2	2.910311E-2
10/19/2017  17:22:11.111404	1.528337E+0	2.336868E-2	1.646291E-2	-1.013632E+1	4.007827E-2	2.709402E-2	7.714242E-2	3.673486E-2
10/19/2017  17:22:11.112404	-6.295316E-2	1.573716E-2	2.664372E-2	-1.014142E+1	2.222863E-2	1.691808E-2	7.459952E-2	3.419094E-2
10/19/2017  17:22:11.113404	-3.730769E-1	1.319332E-2	2.409852E-2	-1.013123E+1	9.478889E-3	1.946206E-2	7.968532E-2	4.182269E-2
								
10/19/2017  17:22:11.114404	-1.562732E+0	8.105642E-3	2.155331E-2	-1.012869E+1	2.222863E-2	1.183011E-2	7.459952E-2	3.673486E-2
10/19/2017  17:22:11.115404	-7.416665E-1	1.319332E-2	1.646291E-2	-1.013887E+1	2.222863E-2	1.946206E-2	7.205661E-2	2.655919E-2
10/19/2017  17:22:11.116404	3.996617E+0	1.573716E-2	3.736893E-3	-1.014142E+1	2.987847E-2	1.691808E-2	6.951371E-2	3.164702E-2
10/19/2017  17:22:11.117404	1.731697E+0	2.082484E-2	1.900811E-2	-1.013887E+1	2.222863E-2	2.709402E-2	7.968532E-2	4.182269E-2
10/19/2017  17:22:11.118404	-3.250618E+0	1.064948E-2	2.155331E-2	-1.012105E+1	1.712873E-2	3.218199E-2	7.459952E-2	3.419094E-2
10/19/2017  17:22:11.119404	-3.479398E+0	5.561801E-3	2.155331E-2	-1.013632E+1	1.457878E-2	1.437409E-2	8.222822E-2	2.910311E-2
10/19/2017  17:22:11.120404	-1.672038E+0	1.064948E-2	1.391770E-2	-1.014905E+1	2.477858E-2	6.742135E-3	7.459952E-2	3.927877E-2
10/19/2017  17:22:11.121404	-8.509724E-1	1.828100E-2	1.900811E-2	-1.012869E+1	2.732853E-2	2.455003E-2	7.205661E-2	2.910311E-2
10/19/2017  17:22:11.122404	-3.273209E-1	2.082484E-2	1.900811E-2	-1.015924E+1	1.967868E-2	2.200605E-2	7.205661E-2	3.164702E-2
10/19/2017  17:22:11.123404	1.988726E-1	1.573716E-2	2.918892E-2	-1.013887E+1	1.457878E-2	2.963800E-2	8.222822E-2	3.164702E-2
10/19/2017  17:22:11.124404	5.166223E-1	1.319332E-2	2.155331E-2	-1.013378E+1	1.457878E-2	2.200605E-2	8.477112E-2	3.673486E-2
10/19/2017  17:22:11.125404	1.294474E+0	4.741205E-4	1.137250E-2	-1.012359E+1	1.457878E-2	1.183011E-2	7.459952E-2	3.673486E-2
10/19/2017  17:22:11.126404	9.157160E-1	2.082484E-2	1.900811E-2	-1.013123E+1	1.967868E-2	1.946206E-2	6.442791E-2	3.164702E-2
10/19/2017  17:22:11.127404	-3.984969E-1	1.319332E-2	2.918892E-2	-1.013378E+1	3.497837E-2	2.455003E-2	7.205661E-2	3.164702E-2
10/19/2017  17:22:11.128404	9.973469E-2	1.573716E-2	1.391770E-2	-1.014651E+1	2.987847E-2	2.709402E-2	7.205661E-2	2.910311E-2
10/19/2017  17:22:11.129404	6.106762E-1	2.082484E-2	3.682453E-2	-1.014142E+1	1.967868E-2	1.946206E-2	7.968532E-2	2.655919E-2
10/19/2017  17:22:11.130404	-6.882846E-1	1.828100E-2	2.155331E-2	-1.013632E+1	2.987847E-2	1.946206E-2	7.714242E-2	2.910311E-2
10/19/2017  17:22:11.131404	-9.246904E-1	1.573716E-2	1.391770E-2	-1.013887E+1	1.457878E-2	1.183011E-2	7.968532E-2	2.910311E-2
10/19/2017  17:22:11.132404	2.093276E-2	1.064948E-2	1.900811E-2	-1.012869E+1	2.477858E-2	1.691808E-2	7.459952E-2	2.910311E-2
10/19/2017  17:22:11.133404	5.217063E-1	1.064948E-2	1.391770E-2	-1.012614E+1	2.732853E-2	2.709402E-2	6.697081E-2	3.419094E-2
10/19/2017  17:22:11.134404	-9.501104E-1	1.064948E-2	1.137250E-2	-1.013378E+1	2.477858E-2	2.455003E-2	6.951371E-2	2.910311E-2
10/19/2017  17:22:11.135404	-2.076215E+0	1.319332E-2	1.646291E-2	-1.013887E+1	2.222863E-2	1.437409E-2	7.459952E-2	1.638352E-2
10/19/2017  17:22:11.136404	2.751325E-1	8.105642E-3	2.664372E-2	-1.013632E+1	2.477858E-2	1.437409E-2	8.222822E-2	3.673486E-2
10/19/2017  17:22:11.137404	-8.074715E-2	1.573716E-2	1.646291E-2	-1.013123E+1	2.222863E-2	1.946206E-2	7.205661E-2	3.164702E-2
10/19/2017  17:22:11.138404	1.632846E-1	8.105642E-3	1.391770E-2	-1.013632E+1	1.457878E-2	1.691808E-2	7.459952E-2	3.419094E-2
10/19/2017  17:22:11.139404	7.428601E-1	1.573716E-2	1.391770E-2	-1.013123E+1	2.732853E-2	1.946206E-2	7.205661E-2	3.164702E-2
10/19/2017  17:22:11.140404	7.987841E-1	1.573716E-2	1.646291E-2	-1.013123E+1	1.712873E-2	1.946206E-2	7.968532E-2	2.147136E-2
10/19/2017  17:22:11.141404	1.297016E+0	1.319332E-2	1.900811E-2	-1.014396E+1	1.457878E-2	2.709402E-2	8.731403E-2	2.147136E-2
10/19/2017  17:22:11.142404	2.323983E+0	1.064948E-2	2.664372E-2	-1.013123E+1	9.478889E-3	2.200605E-2	7.459952E-2	4.436661E-2
10/19/2017  17:22:11.143404	3.045910E+0	5.561801E-3	2.409852E-2	-1.011596E+1	1.967868E-2	1.946206E-2	7.714242E-2	3.673486E-2
10/19/2017  17:22:11.144404	-7.696285E-1	1.828100E-2	8.827299E-3	-1.013887E+1	2.987847E-2	1.691808E-2	7.205661E-2	2.401527E-2
10/19/2017  17:22:11.145404	-2.889655E+0	1.064948E-2	1.646291E-2	-1.014396E+1	2.222863E-2	1.437409E-2	7.459952E-2	2.401527E-2
10/19/2017  17:22:11.146404	-2.795601E+0	2.082484E-2	1.900811E-2	-1.014651E+1	1.712873E-2	2.963800E-2	7.714242E-2	2.910311E-2
								
10/19/2017  17:22:11.147404	-1.666954E+0	1.319332E-2	2.409852E-2	-1.015160E+1	1.457878E-2	1.946206E-2	7.968532E-2	3.164702E-2
10/19/2017  17:22:11.148404	1.708819E+0	1.064948E-2	2.155331E-2	-1.013123E+1	2.477858E-2	1.691808E-2	7.714242E-2	4.436661E-2
10/19/2017  17:22:11.149404	1.642727E+0	1.064948E-2	1.900811E-2	-1.011850E+1	2.477858E-2	2.455003E-2	8.222822E-2	3.419094E-2
10/19/2017  17:22:11.150404	-2.103890E-1	1.828100E-2	1.137250E-2	-1.012869E+1	2.987847E-2	1.946206E-2	6.951371E-2	3.164702E-2
10/19/2017  17:22:11.151404	-1.117882E+0	2.845637E-2	1.391770E-2	-1.016178E+1	2.732853E-2	1.437409E-2	6.188501E-2	2.401527E-2
10/19/2017  17:22:11.152404	-1.689832E+0	1.319332E-2	1.900811E-2	-1.014651E+1	1.967868E-2	2.963800E-2	7.968532E-2	2.655919E-2
10/19/2017  17:22:11.153404	2.707824E+0	1.828100E-2	2.409852E-2	-1.012869E+1	1.967868E-2	3.218199E-2	9.239983E-2	3.419094E-2
10/19/2017  17:22:11.154404	4.980370E+0	4.741205E-4	3.427933E-2	-1.012614E+1	1.967868E-2	9.286120E-3	7.968532E-2	3.164702E-2
10/19/2017  17:22:11.155404	1.393612E+0	2.336868E-2	1.900811E-2	-1.012869E+1	2.477858E-2	1.946206E-2	7.205661E-2	3.164702E-2
10/19/2017  17:22:11.156404	-4.092020E+0	2.082484E-2	1.900811E-2	-1.014142E+1	3.242842E-2	2.455003E-2	6.951371E-2	3.419094E-2
10/19/2017  17:22:11.157404	-3.293832E+0	1.828100E-2	2.155331E-2	-1.015415E+1	2.222863E-2	2.709402E-2	6.442791E-2	2.655919E-2
10/19/2017  17:22:11.158404	-1.865230E+0	1.319332E-2	3.682453E-2	-1.014142E+1	1.202884E-2	2.963800E-2	8.222822E-2	3.164702E-2
10/19/2017  17:22:11.159404	-2.027630E-1	2.336868E-2	1.900811E-2	-1.013887E+1	1.967868E-2	2.200605E-2	7.459952E-2	3.673486E-2
10/19/2017  17:22:11.160404	9.538459E-1	8.105642E-3	1.900811E-2	-1.013123E+1	2.987847E-2	9.286120E-3	7.459952E-2	3.927877E-2
10/19/2017  17:22:11.161404	7.403181E-1	8.105642E-3	1.391770E-2	-1.013887E+1	2.987847E-2	1.946206E-2	6.951371E-2	3.419094E-2
10/19/2017  17:22:11.162404	2.954685E-1	2.082484E-2	1.900811E-2	-1.013123E+1	2.477858E-2	4.235793E-2	7.459952E-2	2.910311E-2
10/19/2017  17:22:11.163404	-3.244919E-2	5.561801E-3	2.409852E-2	-1.014142E+1	2.477858E-2	2.200605E-2	7.714242E-2	3.164702E-2
10/19/2017  17:22:11.164404	-9.571210E-3	1.064948E-2	2.664372E-2	-1.013632E+1	1.712873E-2	1.691808E-2	8.222822E-2	2.655919E-2
10/19/2017  17:22:11.165404	1.424115E+0	1.573716E-2	1.646291E-2	-1.012869E+1	2.477858E-2	1.183011E-2	7.714242E-2	3.673486E-2
10/19/2017  17:22:11.166404	1.187710E+0	1.064948E-2	1.137250E-2	-1.013378E+1	1.967868E-2	1.437409E-2	6.951371E-2	3.673486E-2
10/19/2017  17:22:11.167404	4.047744E-1	4.741205E-4	1.646291E-2	-1.014651E+1	2.477858E-2	2.200605E-2	6.697081E-2	2.910311E-2
10/19/2017  17:22:11.168404	2.125707E+0	1.319332E-2	2.155331E-2	-1.012869E+1	2.222863E-2	2.200605E-2	7.205661E-2	3.164702E-2
10/19/2017  17:22:11.169404	2.776745E-1	-2.069720E-3	1.646291E-2	-1.013632E+1	2.987847E-2	2.200605E-2	7.714242E-2	2.147136E-2
10/19/2017  17:22:11.170404	-1.679664E+0	2.082484E-2	2.155331E-2	-1.014396E+1	1.457878E-2	2.455003E-2	8.222822E-2	3.164702E-2
10/19/2017  17:22:11.171404	-1.798851E-1	1.064948E-2	2.664372E-2	-1.013378E+1	9.478889E-3	1.437409E-2	8.222822E-2	4.182269E-2
10/19/2017  17:22:11.172404	-1.356830E+0	1.064948E-2	1.900811E-2	-1.013887E+1	2.222863E-2	1.437409E-2	7.205661E-2	3.927877E-2
10/19/2017  17:22:11.173404	-1.112798E+0	1.573716E-2	1.900811E-2	-1.013632E+1	1.457878E-2	1.946206E-2	7.714242E-2	3.673486E-2
10/19/2017  17:22:11.174404	4.889474E-2	1.573716E-2	1.137250E-2	-1.012105E+1	2.732853E-2	2.200605E-2	7.205661E-2	3.164702E-2
10/19/2017  17:22:11.175404	-6.501546E-1	2.082484E-2	1.646291E-2	-1.014651E+1	2.477858E-2	2.709402E-2	7.459952E-2	2.401527E-2
10/19/2017  17:22:11.176404	-1.344120E+0	1.573716E-2	1.646291E-2	-1.013887E+1	1.457878E-2	2.709402E-2	8.222822E-2	3.419094E-2
10/19/2017  17:22:11.177404	2.624225E-1	1.319332E-2	2.664372E-2	-1.013632E+1	1.457878E-2	2.200605E-2	8.477112E-2	5.199836E-2
10/19/2017  17:22:11.178404	5.700043E-1	1.064948E-2	1.646291E-2	-1.011596E+1	2.222863E-2	2.200605E-2	7.714242E-2	3.673486E-2
10/19/2017  17:22:11.179404	-1.173806E+0	1.319332E-2	1.391770E-2	-1.013123E+1	2.222863E-2	1.946206E-2	7.714242E-2	1.892744E-2
								
10/19/2017  17:22:11.180404	-8.865604E-1	1.573716E-2	1.391770E-2	-1.013123E+1	2.732853E-2	2.200605E-2	7.205661E-2	3.164702E-2
10/19/2017  17:22:11.181404	2.954685E-1	1.573716E-2	1.137250E-2	-1.013887E+1	2.222863E-2	1.946206E-2	7.459952E-2	3.419094E-2
10/19/2017  17:22:11.182404	2.977276E+0	2.082484E-2	1.900811E-2	-1.016178E+1	2.477858E-2	2.455003E-2	6.697081E-2	2.401527E-2
10/19/2017  17:22:11.183404	1.111450E+0	1.064948E-2	1.391770E-2	-1.012869E+1	1.967868E-2	2.455003E-2	7.459952E-2	3.164702E-2
10/19/2017  17:22:11.184404	7.685671E-2	1.828100E-2	2.155331E-2	-1.013632E+1	1.457878E-2	2.200605E-2	9.239983E-2	3.164702E-2
10/19/2017  17:22:11.185404	-2.990719E-2	3.017961E-3	3.173413E-2	-1.013378E+1	2.222863E-2	9.286120E-3	8.222822E-2	3.673486E-2
10/19/2017  17:22:11.186404	-3.883289E-1	8.105642E-3	2.155331E-2	-1.013123E+1	2.222863E-2	1.437409E-2	7.714242E-2	3.927877E-2
10/19/2017  17:22:11.187404	-7.060786E-1	1.828100E-2	1.391770E-2	-1.013887E+1	2.222863E-2	2.963800E-2	7.459952E-2	3.673486E-2
10/19/2017  17:22:11.188404	-8.026745E-1	1.064948E-2	1.137250E-2	-1.014142E+1	2.222863E-2	1.691808E-2	6.951371E-2	3.164702E-2
10/19/2017  17:22:11.189404	6.310122E-1	1.828100E-2	6.282096E-3	-1.014142E+1	2.477858E-2	3.218199E-2	7.459952E-2	2.655919E-2
10/19/2017  17:22:11.190404	5.496683E-1	3.100021E-2	2.155331E-2	-1.013887E+1	1.457878E-2	2.963800E-2	8.477112E-2	2.655919E-2
10/19/2017  17:22:11.191404	3.437665E-1	1.319332E-2	1.900811E-2	-1.013887E+1	2.477858E-2	9.286120E-3	7.459952E-2	2.655919E-2
10/19/2017  17:22:11.192404	5.827143E-1	3.017961E-3	2.918892E-2	-1.014142E+1	1.457878E-2	2.200605E-2	8.222822E-2	3.164702E-2
10/19/2017  17:22:11.193404	3.717284E-1	1.319332E-2	1.646291E-2	-1.012869E+1	2.732853E-2	2.963800E-2	7.714242E-2	4.182269E-2
10/19/2017  17:22:11.194404	3.056365E-1	2.591253E-2	1.646291E-2	-1.013887E+1	2.732853E-2	1.946206E-2	7.714242E-2	3.164702E-2
10/19/2017  17:22:11.195404	3.946064E-1	1.064948E-2	8.827299E-3	-1.013887E+1	2.477858E-2	1.691808E-2	7.968532E-2	2.655919E-2
10/19/2017  17:22:11.196404	7.631961E-1	1.828100E-2	1.900811E-2	-1.014651E+1	2.732853E-2	2.709402E-2	7.968532E-2	2.655919E-2
10/19/2017  17:22:11.197404	1.632846E-1	2.082484E-2	2.409852E-2	-1.014651E+1	1.457878E-2	2.709402E-2	7.968532E-2	3.164702E-2
10/19/2017  17:22:11.198404	8.222774E-3	5.561801E-3	2.664372E-2	-1.014142E+1	1.457878E-2	2.455003E-2	7.968532E-2	4.182269E-2
10/19/2017  17:22:11.199404	-6.959106E-1	1.064948E-2	1.900811E-2	-1.013378E+1	2.477858E-2	1.946206E-2	7.459952E-2	3.927877E-2
10/19/2017  17:22:11.200404	-1.405128E+0	8.105642E-3	2.155331E-2	-1.013378E+1	3.497837E-2	1.946206E-2	8.222822E-2	2.655919E-2
10/19/2017  17:22:11.201404	-8.840184E-1	1.573716E-2	8.827299E-3	-1.014396E+1	2.477858E-2	1.946206E-2	7.205661E-2	2.910311E-2
10/19/2017  17:22:11.202404	8.826700E-1	2.336868E-2	1.391770E-2	-1.014396E+1	1.457878E-2	2.709402E-2	5.679920E-2	2.910311E-2
10/19/2017  17:22:11.203404	1.963306E-1	2.591253E-2	2.409852E-2	-1.013887E+1	1.457878E-2	2.963800E-2	8.222822E-2	2.655919E-2
10/19/2017  17:22:11.204404	-2.256410E-1	1.573716E-2	1.900811E-2	-1.013887E+1	1.712873E-2	1.946206E-2	8.477112E-2	3.164702E-2
10/19/2017  17:22:11.205404	7.403181E-1	8.105642E-3	1.137250E-2	-1.012869E+1	2.477858E-2	1.691808E-2	7.968532E-2	3.927877E-2
10/19/2017  17:22:11.206404	1.350398E+0	1.064948E-2	1.900811E-2	-1.012359E+1	2.477858E-2	1.691808E-2	7.205661E-2	4.436661E-2
10/19/2017  17:22:11.207404	8.496240E-1	1.319332E-2	1.137250E-2	-1.014905E+1	2.732853E-2	2.200605E-2	6.951371E-2	3.419094E-2
10/19/2017  17:22:11.208404	3.071330E+0	1.319332E-2	2.155331E-2	-1.013378E+1	2.477858E-2	2.200605E-2	7.714242E-2	1.892744E-2
10/19/2017  17:22:11.209404	4.764300E+0	2.082484E-2	1.900811E-2	-1.011341E+1	2.222863E-2	3.218199E-2	7.968532E-2	2.655919E-2
10/19/2017  17:22:11.210404	1.655437E+0	1.064948E-2	2.155331E-2	-1.013632E+1	2.477858E-2	1.946206E-2	7.205661E-2	2.910311E-2
10/19/2017  17:22:11.211404	-6.628646E-1	1.319332E-2	2.664372E-2	-1.015415E+1	2.222863E-2	1.183011E-2	7.459952E-2	3.164702E-2
10/19/2017  17:22:11.212404	4.299115E+0	1.064948E-2	2.664372E-2	-1.013378E+1	2.477858E-2	1.691808E-2	7.459952E-2	3.927877E-2
								
10/19/2017  17:22:11.213404	2.537510E+0	1.319332E-2	1.391770E-2	-1.012869E+1	2.477858E-2	1.691808E-2	6.697081E-2	3.419094E-2
10/19/2017  17:22:11.214404	-2.312621E+0	1.064948E-2	8.827299E-3	-1.014651E+1	2.477858E-2	2.709402E-2	6.951371E-2	2.655919E-2
10/19/2017  17:22:11.215404	-4.742771E+0	2.082484E-2	1.900811E-2	-1.015669E+1	2.222863E-2	2.709402E-2	8.222822E-2	2.655919E-2
10/19/2017  17:22:11.216404	-4.605503E+0	1.828100E-2	2.155331E-2	-1.014905E+1	2.732853E-2	1.437409E-2	7.714242E-2	3.164702E-2
10/19/2017  17:22:11.217404	-2.424469E+0	1.064948E-2	2.409852E-2	-1.014396E+1	1.457878E-2	2.200605E-2	7.205661E-2	3.164702E-2
10/19/2017  17:22:11.218404	-1.260234E+0	1.064948E-2	2.918892E-2	-1.012869E+1	2.477858E-2	1.946206E-2	7.714242E-2	4.182269E-2
10/19/2017  17:22:11.219404	-1.613572E+0	1.828100E-2	1.137250E-2	-1.012614E+1	2.222863E-2	1.691808E-2	6.951371E-2	3.927877E-2
10/19/2017  17:22:11.220404	-2.185521E+0	2.082484E-2	1.137250E-2	-1.014142E+1	2.987847E-2	2.200605E-2	6.951371E-2	2.401527E-2
10/19/2017  17:22:11.221404	5.496683E-1	1.573716E-2	1.900811E-2	-1.014396E+1	2.222863E-2	2.963800E-2	7.968532E-2	2.655919E-2
10/19/2017  17:22:11.222404	1.508001E+0	1.828100E-2	2.155331E-2	-1.013632E+1	2.477858E-2	1.946206E-2	7.459952E-2	3.673486E-2
10/19/2017  17:22:11.223404	-8.026745E-1	8.105642E-3	2.664372E-2	-1.013378E+1	1.202884E-2	1.946206E-2	8.222822E-2	3.673486E-2
10/19/2017  17:22:11.224404	-1.206852E+0	8.105642E-3	1.646291E-2	-1.012614E+1	2.477858E-2	1.691808E-2	7.968532E-2	3.419094E-2
10/19/2017  17:22:11.225404	8.216620E-1	2.845637E-2	1.391770E-2	-1.013123E+1	2.987847E-2	1.946206E-2	7.205661E-2	3.164702E-2
10/19/2017  17:22:11.226404	5.598363E-1	1.573716E-2	1.391770E-2	-1.013887E+1	2.732853E-2	1.946206E-2	6.951371E-2	3.419094E-2
10/19/2017  17:22:11.227404	4.251104E-1	1.064948E-2	1.900811E-2	-1.014905E+1	1.457878E-2	2.963800E-2	7.205661E-2	3.673486E-2
10/19/2017  17:22:11.228404	1.154664E+0	2.082484E-2	2.664372E-2	-1.014396E+1	1.712873E-2	2.709402E-2	8.222822E-2	3.164702E-2
10/19/2017  17:22:11.229404	-8.713084E-1	1.573716E-2	1.900811E-2	-1.013378E+1	1.457878E-2	2.200605E-2	7.205661E-2	3.673486E-2
10/19/2017  17:22:11.230404	-1.489014E+0	1.573716E-2	1.646291E-2	-1.013887E+1	2.222863E-2	1.183011E-2	7.714242E-2	3.164702E-2
10/19/2017  17:22:11.231404	-9.679043E-1	1.573716E-2	1.137250E-2	-1.013887E+1	4.262821E-2	1.946206E-2	7.205661E-2	3.927877E-2
10/19/2017  17:22:11.232404	-2.154730E-1	2.082484E-2	2.155331E-2	-1.014651E+1	1.967868E-2	2.455003E-2	7.459952E-2	2.401527E-2
10/19/2017  17:22:11.233404	-4.595048E-1	1.319332E-2	2.918892E-2	-1.013632E+1	1.202884E-2	1.946206E-2	7.205661E-2	3.164702E-2
10/19/2017  17:22:11.234404	2.242926E-1	1.828100E-2	2.155331E-2	-1.014396E+1	1.712873E-2	1.691808E-2	7.459952E-2	3.927877E-2
10/19/2017  17:22:11.235404	4.352497E+0	1.064948E-2	1.137250E-2	-1.012359E+1	3.242842E-2	1.691808E-2	7.714242E-2	2.910311E-2
10/19/2017  17:22:11.236404	4.207603E+0	2.591253E-2	1.137250E-2	-1.014142E+1	2.732853E-2	2.200605E-2	6.951371E-2	3.164702E-2
10/19/2017  17:22:11.237404	1.749491E+0	1.828100E-2	1.646291E-2	-1.013378E+1	2.222863E-2	2.200605E-2	7.205661E-2	4.182269E-2
10/19/2017  17:22:11.238404	-1.839810E+0	1.573716E-2	3.173413E-2	-1.012359E+1	1.457878E-2	2.709402E-2	8.477112E-2	3.419094E-2
10/19/2017  17:22:11.239404	-4.086936E+0	8.105642E-3	1.646291E-2	-1.013887E+1	1.712873E-2	1.691808E-2	7.968532E-2	3.673486E-2
10/19/2017  17:22:11.240404	-7.670865E-1	1.573716E-2	1.646291E-2	-1.012869E+1	2.732853E-2	1.946206E-2	7.459952E-2	3.419094E-2
10/19/2017  17:22:11.241404	6.208442E-1	2.591253E-2	2.409852E-2	-1.014142E+1	2.987847E-2	2.455003E-2	7.205661E-2	2.401527E-2
10/19/2017  17:22:11.242404	-1.361914E+0	1.828100E-2	2.155331E-2	-1.014142E+1	2.222863E-2	1.183011E-2	7.714242E-2	3.164702E-2
10/19/2017  17:22:11.243404	-4.213748E-1	1.064948E-2	3.173413E-2	-1.014142E+1	1.202884E-2	1.691808E-2	7.968532E-2	3.164702E-2
10/19/2017  17:22:11.244404	-5.306807E-1	1.064948E-2	2.409852E-2	-1.012869E+1	1.457878E-2	1.437409E-2	7.205661E-2	3.927877E-2
10/19/2017  17:22:11.245404	-7.213306E-1	1.064948E-2	1.137250E-2	-1.012869E+1	2.477858E-2	2.200605E-2	6.951371E-2	3.164702E-2
								
10/19/2017  17:22:11.246404	1.973187E+0	1.828100E-2	1.137250E-2	-1.014142E+1	2.732853E-2	1.946206E-2	6.951371E-2	2.655919E-2
10/19/2017  17:22:11.247404	2.946772E+0	2.336868E-2	3.173413E-2	-1.013632E+1	1.712873E-2	2.963800E-2	7.714242E-2	2.147136E-2
10/19/2017  17:22:11.248404	5.522103E-1	1.064948E-2	2.664372E-2	-1.012869E+1	1.457878E-2	1.946206E-2	8.222822E-2	3.673486E-2
10/19/2017  17:22:11.249404	-1.499182E+0	1.064948E-2	1.137250E-2	-1.013632E+1	1.457878E-2	1.183011E-2	7.968532E-2	3.164702E-2
10/19/2017  17:22:11.250404	-1.087091E-1	2.082484E-2	1.900811E-2	-1.013632E+1	2.222863E-2	1.437409E-2	7.205661E-2	3.164702E-2
10/19/2017  17:22:11.251404	-9.602784E-1	1.319332E-2	1.137250E-2	-1.013887E+1	2.987847E-2	3.726996E-2	6.697081E-2	3.673486E-2
10/19/2017  17:22:11.252404	-3.374889E-1	1.064948E-2	1.900811E-2	-1.014396E+1	1.712873E-2	2.455003E-2	7.714242E-2	2.147136E-2
10/19/2017  17:22:11.253404	1.711361E+0	1.573716E-2	2.918892E-2	-1.013378E+1	1.967868E-2	9.286120E-3	8.222822E-2	2.147136E-2
10/19/2017  17:22:11.254404	2.522546E-1	2.591253E-2	2.155331E-2	-1.011850E+1	2.477858E-2	1.437409E-2	7.968532E-2	3.927877E-2
10/19/2017  17:22:11.255404	3.110075E-2	1.064948E-2	1.137250E-2	-1.012614E+1	2.987847E-2	1.437409E-2	6.951371E-2	2.401527E-2
10/19/2017  17:22:11.256404	3.081785E-1	3.608789E-2	1.391770E-2	-1.014651E+1	2.477858E-2	2.709402E-2	6.951371E-2	2.655919E-2
10/19/2017  17:22:11.257404	9.157160E-1	2.082484E-2	1.900811E-2	-1.013887E+1	2.477858E-2	2.963800E-2	7.205661E-2	2.655919E-2
10/19/2017  17:22:11.258404	8.928380E-1	3.017961E-3	1.900811E-2	-1.013887E+1	2.222863E-2	2.709402E-2	7.968532E-2	2.401527E-2
10/19/2017  17:22:11.259404	-1.570071E-1	1.319332E-2	2.155331E-2	-1.013632E+1	1.712873E-2	1.946206E-2	8.222822E-2	2.655919E-2
10/19/2017  17:22:11.260404	-1.077210E+0	1.064948E-2	2.918892E-2	-1.012614E+1	9.478889E-3	1.183011E-2	7.459952E-2	4.182269E-2
10/19/2017  17:22:11.261404	-7.086206E-1	1.064948E-2	1.900811E-2	-1.012614E+1	2.987847E-2	1.691808E-2	6.951371E-2	3.673486E-2
10/19/2017  17:22:11.262404	-1.544651E-1	1.064948E-2	8.827299E-3	-1.013887E+1	1.967868E-2	1.946206E-2	6.188501E-2	2.655919E-2
10/19/2017  17:22:11.263404	-5.205127E-1	1.573716E-2	1.900811E-2	-1.014905E+1	2.477858E-2	1.437409E-2	7.968532E-2	2.910311E-2
10/19/2017  17:22:11.264404	9.513039E-1	2.082484E-2	1.900811E-2	-1.014142E+1	1.967868E-2	2.200605E-2	8.222822E-2	2.401527E-2
10/19/2017  17:22:11.265404	2.207051E+0	1.573716E-2	2.155331E-2	-1.014651E+1	1.457878E-2	1.437409E-2	8.222822E-2	3.164702E-2
10/19/2017  17:22:11.266404	3.005238E+0	1.064948E-2	2.155331E-2	-1.013123E+1	2.477858E-2	2.709402E-2	7.968532E-2	5.199836E-2
10/19/2017  17:22:11.267404	3.912731E+0	1.319332E-2	1.900811E-2	-1.012869E+1	2.477858E-2	1.946206E-2	7.968532E-2	2.910311E-2
10/19/2017  17:22:11.268404	1.108908E+0	1.064948E-2	8.827299E-3	-1.013378E+1	2.477858E-2	1.946206E-2	7.205661E-2	2.147136E-2
10/19/2017  17:22:11.269404	8.956670E-2	1.319332E-2	1.646291E-2	-1.014905E+1	2.222863E-2	2.200605E-2	7.714242E-2	2.910311E-2
10/19/2017  17:22:11.270404	-9.551944E-1	2.082484E-2	2.409852E-2	-1.013887E+1	2.477858E-2	1.691808E-2	7.459952E-2	3.419094E-2
10/19/2017  17:22:11.271404	-3.926790E+0	1.064948E-2	2.155331E-2	-1.014142E+1	1.457878E-2	2.200605E-2	8.731403E-2	3.164702E-2
10/19/2017  17:22:11.272404	-4.925795E+0	8.105642E-3	2.409852E-2	-1.014142E+1	1.967868E-2	1.946206E-2	7.459952E-2	4.182269E-2
10/19/2017  17:22:11.273404	-2.282117E+0	1.319332E-2	1.391770E-2	-1.013378E+1	2.732853E-2	1.691808E-2	8.477112E-2	3.164702E-2
10/19/2017  17:22:11.274404	2.857802E+0	1.828100E-2	1.391770E-2	-1.013378E+1	3.242842E-2	1.183011E-2	7.205661E-2	3.419094E-2
10/19/2017  17:22:11.275404	1.075862E+0	2.336868E-2	1.391770E-2	-1.013378E+1	2.987847E-2	2.709402E-2	6.188501E-2	2.910311E-2
10/19/2017  17:22:11.276404	-1.722878E+0	2.082484E-2	3.427933E-2	-1.013887E+1	2.222863E-2	3.981394E-2	8.731403E-2	2.655919E-2
10/19/2017  17:22:11.277404	-1.387334E+0	1.064948E-2	2.155331E-2	-1.013632E+1	1.457878E-2	1.946206E-2	7.968532E-2	3.927877E-2
10/19/2017  17:22:11.278404	-3.499119E-2	1.319332E-2	1.191689E-3	-1.014142E+1	1.457878E-2	1.437409E-2	7.714242E-2	3.419094E-2
								
10/19/2017  17:22:11.279404	-9.780723E-1	2.082484E-2	2.155331E-2	-1.013378E+1	2.477858E-2	1.946206E-2	7.714242E-2	2.910311E-2
10/19/2017  17:22:11.280404	-4.467948E-1	1.319332E-2	1.137250E-2	-1.013632E+1	3.497837E-2	1.946206E-2	6.697081E-2	3.673486E-2
10/19/2017  17:22:11.281404	-3.756189E-1	2.082484E-2	1.391770E-2	-1.014651E+1	2.477858E-2	2.455003E-2	7.714242E-2	2.655919E-2
10/19/2017  17:22:11.282404	6.081342E-1	1.828100E-2	2.918892E-2	-1.014142E+1	1.712873E-2	3.981394E-2	8.222822E-2	2.147136E-2
10/19/2017  17:22:11.283404	1.251547E-1	1.828100E-2	2.155331E-2	-1.012869E+1	1.202884E-2	1.946206E-2	8.222822E-2	2.655919E-2
10/19/2017  17:22:11.284404	1.835919E+0	1.064948E-2	2.409852E-2	-1.013123E+1	1.712873E-2	-3.433805E-3	7.714242E-2	3.164702E-2
10/19/2017  17:22:11.285404	2.379907E+0	3.100021E-2	2.155331E-2	-1.013887E+1	2.477858E-2	1.437409E-2	7.714242E-2	2.910311E-2
10/19/2017  17:22:11.286404	-8.713084E-1	1.319332E-2	1.646291E-2	-1.013632E+1	2.987847E-2	1.946206E-2	6.697081E-2	3.164702E-2
10/19/2017  17:22:11.287404	-7.264146E-1	5.561801E-3	1.137250E-2	-1.013378E+1	1.202884E-2	1.946206E-2	7.205661E-2	2.401527E-2
10/19/2017  17:22:11.288404	2.893390E+0	2.082484E-2	2.155331E-2	-1.013632E+1	2.732853E-2	2.200605E-2	7.714242E-2	2.655919E-2
10/19/2017  17:22:11.289404	3.569562E+0	1.319332E-2	2.409852E-2	-1.012869E+1	2.477858E-2	2.200605E-2	8.731403E-2	3.164702E-2
10/19/2017  17:22:11.290404	1.790163E+0	1.319332E-2	1.900811E-2	-1.013887E+1	2.222863E-2	2.200605E-2	7.714242E-2	3.927877E-2
10/19/2017  17:22:11.291404	-3.481940E+0	5.561801E-3	2.155331E-2	-1.013632E+1	4.517816E-2	1.437409E-2	7.205661E-2	3.927877E-2
10/19/2017  17:22:11.292404	-4.198783E+0	1.319332E-2	1.391770E-2	-1.013378E+1	2.477858E-2	1.691808E-2	7.205661E-2	3.419094E-2
10/19/2017  17:22:11.293404	-6.043987E-1	1.828100E-2	1.646291E-2	-1.014142E+1	1.967868E-2	1.946206E-2	7.205661E-2	1.638352E-2
10/19/2017  17:22:11.294404	1.548673E+0	1.828100E-2	1.137250E-2	-1.013378E+1	1.967868E-2	2.709402E-2	7.205661E-2	3.164702E-2
10/19/2017  17:22:11.295404	3.356034E+0	1.573716E-2	2.664372E-2	-1.013378E+1	1.457878E-2	2.455003E-2	8.222822E-2	4.182269E-2
10/19/2017  17:22:11.296404	3.869804E-1	8.105642E-3	2.664372E-2	-1.011596E+1	1.457878E-2	2.709402E-2	7.459952E-2	3.419094E-2
10/19/2017  17:22:11.297404	-2.213483E+0	1.319332E-2	1.391770E-2	-1.013887E+1	1.967868E-2	9.286120E-3	7.459952E-2	4.182269E-2
10/19/2017  17:22:11.298404	-9.170644E-1	1.064948E-2	1.137250E-2	-1.012105E+1	2.987847E-2	2.455003E-2	7.205661E-2	3.164702E-2
10/19/2017  17:22:11.299404	2.471419E+0	2.082484E-2	1.137250E-2	-1.014142E+1	2.987847E-2	2.455003E-2	6.951371E-2	1.638352E-2
10/19/2017  17:22:11.300404	3.056365E-1	2.082484E-2	1.391770E-2	-1.015415E+1	1.712873E-2	2.455003E-2	6.697081E-2	3.164702E-2
10/19/2017  17:22:11.301404	5.445843E-1	1.064948E-2	3.173413E-2	-1.013632E+1	1.457878E-2	2.709402E-2	8.222822E-2	3.164702E-2
10/19/2017  17:22:11.302404	-6.018567E-1	3.017961E-3	2.664372E-2	-1.012869E+1	1.712873E-2	2.455003E-2	9.494273E-2	3.673486E-2
10/19/2017  17:22:11.303404	-1.504266E+0	8.105642E-3	6.282096E-3	-1.012869E+1	1.457878E-2	9.286120E-3	7.714242E-2	3.673486E-2
10/19/2017  17:22:11.304404	-6.857426E-1	3.017961E-3	1.391770E-2	-1.013632E+1	2.987847E-2	2.455003E-2	6.951371E-2	3.419094E-2
10/19/2017  17:22:11.305404	-7.312115E-2	2.845637E-2	2.409852E-2	-1.013378E+1	2.987847E-2	2.200605E-2	6.951371E-2	2.655919E-2
10/19/2017  17:22:11.306404	1.047900E+0	1.828100E-2	1.900811E-2	-1.014651E+1	2.222863E-2	2.963800E-2	6.951371E-2	2.401527E-2
10/19/2017  17:22:11.307404	1.169916E+0	1.319332E-2	1.391770E-2	-1.013632E+1	1.457878E-2	2.963800E-2	7.714242E-2	3.927877E-2
10/19/2017  17:22:11.308404	1.846087E+0	1.828100E-2	2.409852E-2	-1.012869E+1	1.457878E-2	2.200605E-2	8.222822E-2	3.927877E-2
10/19/2017  17:22:11.309404	3.641025E-1	1.319332E-2	3.736893E-3	-1.013632E+1	1.712873E-2	1.946206E-2	7.459952E-2	3.673486E-2
10/19/2017  17:22:11.310404	-8.840184E-1	-2.069720E-3	1.900811E-2	-1.014142E+1	1.967868E-2	1.437409E-2	7.714242E-2	3.927877E-2
10/19/2017  17:22:11.311404	-2.043169E+0	1.573716E-2	2.155331E-2	-1.013887E+1	2.477858E-2	3.726996E-2	7.714242E-2	3.673486E-2
								
10/19/2017  17:22:11.312404	-2.256697E+0	2.336868E-2	1.900811E-2	-1.013123E+1	2.987847E-2	1.946206E-2	6.951371E-2	3.419094E-2
10/19/2017  17:22:11.313404	-1.506808E+0	2.082484E-2	1.137250E-2	-1.013632E+1	2.222863E-2	1.946206E-2	7.968532E-2	2.147136E-2
10/19/2017  17:22:11.314404	-1.051790E+0	3.100021E-2	1.900811E-2	-1.013632E+1	2.987847E-2	2.455003E-2	7.714242E-2	2.910311E-2
10/19/2017  17:22:11.315404	-7.925065E-1	1.828100E-2	2.155331E-2	-1.014142E+1	1.457878E-2	2.455003E-2	7.459952E-2	3.164702E-2
10/19/2017  17:22:11.316404	-9.755303E-1	4.741205E-4	1.900811E-2	-1.013887E+1	9.478889E-3	1.946206E-2	7.714242E-2	3.164702E-2
10/19/2017  17:22:11.317404	-1.697171E-1	1.064948E-2	1.900811E-2	-1.013123E+1	2.222863E-2	1.437409E-2	7.459952E-2	3.927877E-2
10/19/2017  17:22:11.318404	1.129244E+0	1.064948E-2	8.827299E-3	-1.012614E+1	1.712873E-2	1.691808E-2	8.222822E-2	2.655919E-2
10/19/2017  17:22:11.319404	4.939698E+0	1.319332E-2	1.900811E-2	-1.013632E+1	2.222863E-2	1.946206E-2	6.442791E-2	3.419094E-2
10/19/2017  17:22:11.320404	5.005790E+0	2.082484E-2	2.155331E-2	-1.012869E+1	2.477858E-2	2.963800E-2	8.222822E-2	2.910311E-2
10/19/2017  17:22:11.321404	3.066246E+0	1.319332E-2	2.409852E-2	-1.013378E+1	1.457878E-2	2.709402E-2	7.968532E-2	2.401527E-2
10/19/2017  17:22:11.322404	-3.878492E+0	1.319332E-2	2.409852E-2	-1.014142E+1	1.829045E-3	2.200605E-2	7.459952E-2	2.401527E-2
10/19/2017  17:22:11.323404	-2.515981E+0	1.064948E-2	1.900811E-2	-1.013887E+1	2.222863E-2	1.691808E-2	7.205661E-2	3.419094E-2
10/19/2017  17:22:11.324404	-6.295316E-2	1.064948E-2	1.900811E-2	-1.013887E+1	2.477858E-2	2.200605E-2	7.459952E-2	2.147136E-2
10/19/2017  17:22:11.325404	1.253802E+0	1.319332E-2	1.137250E-2	-1.014396E+1	2.477858E-2	1.691808E-2	7.968532E-2	3.419094E-2
10/19/2017  17:22:11.326404	1.355482E+0	1.319332E-2	8.827299E-3	-1.013887E+1	2.477858E-2	2.455003E-2	7.459952E-2	3.673486E-2
10/19/2017  17:22:11.327404	2.865428E+0	1.319332E-2	1.900811E-2	-1.012359E+1	2.222863E-2	2.455003E-2	8.477112E-2	3.164702E-2
10/19/2017  17:22:11.328404	-9.091514E-2	1.064948E-2	1.646291E-2	-1.013378E+1	1.457878E-2	1.437409E-2	8.222822E-2	2.910311E-2
10/19/2017  17:22:11.329404	7.177272E-2	1.064948E-2	1.646291E-2	-1.013887E+1	2.222863E-2	1.183011E-2	7.459952E-2	4.182269E-2
10/19/2017  17:22:11.330404	7.098141E-1	2.082484E-2	2.409852E-2	-1.013887E+1	2.477858E-2	1.691808E-2	7.459952E-2	3.164702E-2
10/19/2017  17:22:11.331404	-1.982161E+0	5.561801E-3	8.827299E-3	-1.014905E+1	2.732853E-2	1.946206E-2	6.697081E-2	3.164702E-2
10/19/2017  17:22:11.332404	-2.002497E+0	1.828100E-2	1.137250E-2	-1.013887E+1	2.477858E-2	1.946206E-2	7.205661E-2	3.164702E-2
10/19/2017  17:22:11.333404	-1.351746E+0	2.082484E-2	1.646291E-2	-1.014142E+1	2.222863E-2	2.709402E-2	8.985693E-2	2.655919E-2
10/19/2017  17:22:11.334404	-1.242440E+0	2.336868E-2	1.391770E-2	-1.015160E+1	1.712873E-2	2.709402E-2	8.222822E-2	3.164702E-2
10/19/2017  17:22:11.335404	-9.831563E-1	1.064948E-2	2.664372E-2	-1.013887E+1	1.712873E-2	1.691808E-2	7.968532E-2	3.164702E-2
10/19/2017  17:22:11.336404	-5.383067E-1	1.064948E-2	2.918892E-2	-1.013378E+1	2.477858E-2	1.946206E-2	7.968532E-2	4.182269E-2
10/19/2017  17:22:11.337404	-4.086648E-1	1.573716E-2	1.900811E-2	-1.013123E+1	2.477858E-2	1.691808E-2	6.697081E-2	4.182269E-2
10/19/2017  17:22:11.338404	-3.476569E-1	1.319332E-2	1.137250E-2	-1.014142E+1	2.477858E-2	1.183011E-2	7.205661E-2	2.910311E-2
10/19/2017  17:22:11.339404	6.668872E-2	1.319332E-2	1.900811E-2	-1.013887E+1	3.242842E-2	2.963800E-2	7.205661E-2	2.910311E-2
10/19/2017  17:22:11.340404	6.513482E-1	1.828100E-2	2.155331E-2	-1.014651E+1	1.712873E-2	2.709402E-2	7.459952E-2	2.910311E-2
10/19/2017  17:22:11.341404	1.810786E-1	1.828100E-2	2.409852E-2	-1.013887E+1	1.457878E-2	2.709402E-2	8.222822E-2	3.164702E-2
10/19/2017  17:22:11.342404	-8.408045E-1	1.319332E-2	2.409852E-2	-1.013887E+1	1.712873E-2	1.691808E-2	8.222822E-2	2.401527E-2
10/19/2017  17:22:11.343404	-2.330415E+0	1.828100E-2	1.900811E-2	-1.014651E+1	2.477858E-2	1.946206E-2	7.968532E-2	3.927877E-2
10/19/2017  17:22:11.344404	1.113992E+0	1.319332E-2	1.900811E-2	-1.013378E+1	2.222863E-2	1.183011E-2	6.951371E-2	4.182269E-2
								
10/19/2017  17:22:11.345404	4.970202E+0	3.017961E-3	1.391770E-2	-1.014142E+1	1.967868E-2	1.691808E-2	6.697081E-2	3.164702E-2
10/19/2017  17:22:11.346404	4.893942E+0	1.319332E-2	2.155331E-2	-1.013123E+1	2.222863E-2	1.691808E-2	6.951371E-2	3.419094E-2
10/19/2017  17:22:11.347404	-7.213306E-1	2.082484E-2	2.409852E-2	-1.013887E+1	6.928941E-3	2.455003E-2	7.459952E-2	3.164702E-2
10/19/2017  17:22:11.348404	-2.536317E+0	1.828100E-2	2.155331E-2	-1.014142E+1	1.967868E-2	1.946206E-2	7.968532E-2	3.164702E-2
10/19/2017  17:22:11.349404	-1.659328E+0	1.319332E-2	1.646291E-2	-1.014651E+1	3.242842E-2	1.946206E-2	7.968532E-2	3.673486E-2
10/19/2017  17:22:11.350404	-2.027917E+0	5.561801E-3	2.409852E-2	-1.013887E+1	2.477858E-2	1.691808E-2	7.205661E-2	3.673486E-2
10/19/2017  17:22:11.351404	-1.122966E+0	1.064948E-2	1.391770E-2	-1.013632E+1	1.457878E-2	2.200605E-2	6.442791E-2	2.910311E-2
10/19/2017  17:22:11.352404	3.394164E+0	1.573716E-2	6.282096E-3	-1.014142E+1	2.987847E-2	1.691808E-2	7.205661E-2	3.164702E-2
10/19/2017  17:22:11.353404	4.014411E+0	2.082484E-2	1.900811E-2	-1.013123E+1	2.477858E-2	2.455003E-2	7.968532E-2	3.927877E-2
10/19/2017  17:22:11.354404	3.912731E+0	1.573716E-2	1.900811E-2	-1.013632E+1	1.967868E-2	1.437409E-2	7.205661E-2	3.673486E-2
10/19/2017  17:22:11.355404	8.801280E-1	1.573716E-2	2.664372E-2	-1.013887E+1	1.712873E-2	2.200605E-2	8.222822E-2	2.910311E-2
10/19/2017  17:22:11.356404	-4.923253E+0	1.319332E-2	2.409852E-2	-1.013378E+1	2.222863E-2	1.946206E-2	7.459952E-2	4.182269E-2
10/19/2017  17:22:11.357404	-4.943589E+0	1.064948E-2	1.137250E-2	-1.013887E+1	2.477858E-2	1.183011E-2	7.968532E-2	2.910311E-2
10/19/2017  17:22:11.358404	-4.671595E+0	1.828100E-2	1.137250E-2	-1.014905E+1	2.987847E-2	1.183011E-2	7.205661E-2	3.164702E-2
10/19/2017  17:22:11.359404	-1.049248E+0	2.845637E-2	1.900811E-2	-1.014651E+1	2.987847E-2	2.200605E-2	6.951371E-2	2.655919E-2
10/19/2017  17:22:11.360404	1.632559E+0	2.082484E-2	2.918892E-2	-1.013378E+1	1.967868E-2	3.218199E-2	7.205661E-2	3.419094E-2
10/19/2017  17:22:11.361404	3.150132E+0	5.561801E-3	1.900811E-2	-1.013123E+1	1.457878E-2	1.946206E-2	8.222822E-2	2.910311E-2
10/19/2017  17:22:11.362404	6.106762E-1	1.319332E-2	2.664372E-2	-1.012359E+1	1.712873E-2	1.946206E-2	9.239983E-2	3.673486E-2
10/19/2017  17:22:11.363404	1.584877E-2	1.319332E-2	2.664372E-2	-1.013887E+1	2.477858E-2	1.691808E-2	7.714242E-2	2.655919E-2
10/19/2017  17:22:11.364404	-1.067042E+0	8.105642E-3	1.646291E-2	-1.014142E+1	2.732853E-2	1.946206E-2	8.222822E-2	3.164702E-2
10/19/2017  17:22:11.365404	1.012312E+0	2.082484E-2	3.173413E-2	-1.014142E+1	2.477858E-2	2.963800E-2	7.205661E-2	2.910311E-2
10/19/2017  17:22:11.366404	4.683244E-1	1.064948E-2	1.900811E-2	-1.013378E+1	2.222863E-2	1.946206E-2	7.205661E-2	3.164702E-2
10/19/2017  17:22:11.367404	-2.841070E-1	1.573716E-2	2.155331E-2	-1.014396E+1	1.202884E-2	4.198150E-3	8.222822E-2	3.673486E-2
10/19/2017  17:22:11.368404	-6.221927E-1	1.319332E-2	1.646291E-2	-1.013123E+1	2.477858E-2	1.183011E-2	7.714242E-2	3.673486E-2
10/19/2017  17:22:11.369404	6.668872E-2	1.319332E-2	1.137250E-2	-1.013632E+1	2.987847E-2	2.963800E-2	6.951371E-2	3.673486E-2
10/19/2017  17:22:11.370404	1.584877E-2	1.828100E-2	1.900811E-2	-1.012869E+1	1.712873E-2	1.946206E-2	7.459952E-2	2.655919E-2
10/19/2017  17:22:11.371404	1.485123E+0	1.319332E-2	1.900811E-2	-1.013632E+1	2.477858E-2	1.946206E-2	7.714242E-2	3.673486E-2
10/19/2017  17:22:11.372404	1.729155E+0	3.354405E-2	2.664372E-2	-1.014142E+1	1.457878E-2	2.455003E-2	8.477112E-2	2.655919E-2
10/19/2017  17:22:11.373404	9.970599E-1	1.064948E-2	2.409852E-2	-1.012359E+1	1.712873E-2	6.742135E-3	7.459952E-2	3.164702E-2
10/19/2017  17:22:11.374404	5.242483E-1	2.082484E-2	1.900811E-2	-1.014142E+1	2.987847E-2	1.183011E-2	7.714242E-2	4.182269E-2
10/19/2017  17:22:11.375404	1.429487E-1	1.064948E-2	1.391770E-2	-1.012359E+1	2.987847E-2	1.691808E-2	7.205661E-2	4.182269E-2
10/19/2017  17:22:11.376404	1.698651E+0	1.573716E-2	8.827299E-3	-1.012869E+1	2.222863E-2	2.963800E-2	6.951371E-2	2.401527E-2
10/19/2017  17:22:11.377404	2.298563E+0	1.573716E-2	1.646291E-2	-1.013632E+1	2.477858E-2	2.455003E-2	7.459952E-2	2.910311E-2
								
10/19/2017  17:22:11.378404	-4.353845E+0	2.336868E-2	2.155331E-2	-1.014905E+1	3.242842E-2	1.946206E-2	7.714242E-2	3.164702E-2
10/19/2017  17:22:11.379404	-4.946131E+0	1.064948E-2	2.155331E-2	-1.015160E+1	1.712873E-2	1.691808E-2	7.459952E-2	3.164702E-2
10/19/2017  17:22:11.380404	1.068236E+0	1.828100E-2	2.155331E-2	-1.014651E+1	2.477858E-2	1.946206E-2	7.714242E-2	2.655919E-2
10/19/2017  17:22:11.381404	3.343324E+0	8.105642E-3	2.155331E-2	-1.012105E+1	2.222863E-2	1.946206E-2	7.459952E-2	3.419094E-2
10/19/2017  17:22:11.382404	6.513482E-1	1.319332E-2	1.646291E-2	-1.012359E+1	1.967868E-2	1.946206E-2	7.968532E-2	2.401527E-2
10/19/2017  17:22:11.383404	-6.272767E-1	1.319332E-2	1.646291E-2	-1.014142E+1	2.987847E-2	1.946206E-2	7.968532E-2	3.164702E-2
10/19/2017  17:22:11.384404	4.759504E-1	2.082484E-2	1.646291E-2	-1.014142E+1	2.987847E-2	2.963800E-2	7.968532E-2	4.182269E-2
10/19/2017  17:22:11.385404	-3.730769E-1	2.082484E-2	2.918892E-2	-1.012105E+1	1.712873E-2	3.218199E-2	7.968532E-2	2.147136E-2
10/19/2017  17:22:11.386404	-2.488019E+0	1.064948E-2	2.409852E-2	-1.014651E+1	1.712873E-2	1.946206E-2	8.477112E-2	1.892744E-2
10/19/2017  17:22:11.387404	-4.908001E+0	1.064948E-2	2.664372E-2	-1.012105E+1	1.457878E-2	2.455003E-2	8.222822E-2	3.927877E-2
10/19/2017  17:22:11.388404	-4.229287E+0	1.319332E-2	2.409852E-2	-1.013378E+1	2.222863E-2	1.946206E-2	7.459952E-2	3.673486E-2
10/19/2017  17:22:11.389404	1.685941E+0	1.319332E-2	1.137250E-2	-1.015415E+1	2.987847E-2	1.946206E-2	6.188501E-2	2.401527E-2
10/19/2017  17:22:11.390404	5.005790E+0	3.017961E-3	1.900811E-2	-1.012359E+1	2.222863E-2	2.709402E-2	7.459952E-2	2.655919E-2
10/19/2017  17:22:11.391404	4.998164E+0	1.064948E-2	1.900811E-2	-1.012869E+1	2.222863E-2	2.200605E-2	8.222822E-2	3.419094E-2
10/19/2017  17:22:11.392404	2.458709E+0	1.064948E-2	1.391770E-2	-1.013632E+1	1.712873E-2	1.437409E-2	8.222822E-2	2.910311E-2
10/19/2017  17:22:11.393404	1.449535E+0	1.064948E-2	1.900811E-2	-1.014142E+1	2.222863E-2	2.200605E-2	8.731403E-2	4.182269E-2
10/19/2017  17:22:11.394404	-1.417838E+0	2.082484E-2	3.173413E-2	-1.013887E+1	2.477858E-2	2.455003E-2	7.714242E-2	3.164702E-2
10/19/2017  17:22:11.395404	2.039566E-1	1.064948E-2	1.137250E-2	-1.013887E+1	2.477858E-2	1.946206E-2	7.205661E-2	2.910311E-2
10/19/2017  17:22:11.396404	4.174557E+0	1.828100E-2	8.827299E-3	-1.013887E+1	1.712873E-2	2.200605E-2	7.459952E-2	2.401527E-2
10/19/2017  17:22:11.397404	1.431741E+0	2.591253E-2	2.155331E-2	-1.013887E+1	2.732853E-2	1.946206E-2	7.714242E-2	3.164702E-2
10/19/2017  17:22:11.398404	-2.917617E+0	1.319332E-2	1.137250E-2	-1.013632E+1	1.457878E-2	1.437409E-2	8.477112E-2	3.673486E-2
10/19/2017  17:22:11.399404	-3.415848E+0	3.017961E-3	2.409852E-2	-1.014396E+1	1.202884E-2	1.691808E-2	7.968532E-2	3.927877E-2
10/19/2017  17:22:11.400404	-1.809306E+0	8.105642E-3	1.391770E-2	-1.013123E+1	2.477858E-2	2.709402E-2	6.951371E-2	3.673486E-2
10/19/2017  17:22:11.401404	-1.211321E-2	8.105642E-3	1.137250E-2	-1.013123E+1	2.477858E-2	1.946206E-2	7.205661E-2	2.401527E-2
10/19/2017  17:22:11.402404	1.055526E+0	2.082484E-2	1.900811E-2	-1.014142E+1	2.222863E-2	1.183011E-2	7.459952E-2	2.147136E-2
10/19/2017  17:22:11.403404	3.742704E-1	8.105642E-3	2.664372E-2	-1.015415E+1	2.477858E-2	2.709402E-2	8.222822E-2	3.164702E-2
10/19/2017  17:22:11.404404	-3.501989E-1	5.561801E-3	2.664372E-2	-1.013123E+1	2.477858E-2	2.455003E-2	8.222822E-2	4.182269E-2
10/19/2017  17:22:11.405404	2.138417E+0	4.741205E-4	1.900811E-2	-1.013123E+1	1.457878E-2	1.437409E-2	7.459952E-2	3.673486E-2
10/19/2017  17:22:11.406404	-7.111626E-1	1.064948E-2	1.137250E-2	-1.012614E+1	2.987847E-2	1.691808E-2	7.205661E-2	3.164702E-2
10/19/2017  17:22:11.407404	1.746949E+0	1.319332E-2	1.391770E-2	-1.013378E+1	3.242842E-2	2.200605E-2	7.459952E-2	2.910311E-2
10/19/2017  17:22:11.408404	1.446993E+0	2.336868E-2	1.646291E-2	-1.015415E+1	1.967868E-2	2.709402E-2	7.459952E-2	2.401527E-2
10/19/2017  17:22:11.409404	7.784481E-1	1.828100E-2	1.900811E-2	-1.013378E+1	1.202884E-2	1.946206E-2	6.951371E-2	3.673486E-2
10/19/2017  17:22:11.410404	-1.382250E+0	1.319332E-2	2.918892E-2	-1.012614E+1	1.457878E-2	2.455003E-2	8.222822E-2	3.164702E-2
								
10/19/2017  17:22:11.411404	-2.119429E+0	1.064948E-2	2.409852E-2	-1.013123E+1	1.712873E-2	1.437409E-2	8.731403E-2	2.655919E-2
10/19/2017  17:22:11.412404	-1.661870E+0	8.105642E-3	1.391770E-2	-1.014651E+1	2.222863E-2	1.437409E-2	7.459952E-2	3.673486E-2
10/19/2017  17:22:11.413404	-1.305990E+0	1.828100E-2	1.137250E-2	-1.013632E+1	2.987847E-2	2.200605E-2	7.205661E-2	4.436661E-2
10/19/2017  17:22:11.414404	-1.738130E+0	1.064948E-2	1.137250E-2	-1.014396E+1	2.222863E-2	2.200605E-2	6.951371E-2	2.910311E-2
10/19/2017  17:22:11.415404	4.606984E-1	1.828100E-2	1.900811E-2	-1.013887E+1	1.457878E-2	2.709402E-2	7.714242E-2	3.164702E-2
10/19/2017  17:22:11.416404	3.463085E-1	1.064948E-2	2.155331E-2	-1.011850E+1	1.457878E-2	2.709402E-2	8.222822E-2	2.910311E-2
10/19/2017  17:22:11.417404	2.496839E+0	1.828100E-2	1.646291E-2	-1.013632E+1	2.477858E-2	1.946206E-2	7.968532E-2	3.419094E-2
10/19/2017  17:22:11.418404	4.047744E-1	8.105642E-3	2.409852E-2	-1.014905E+1	2.222863E-2	4.198150E-3	7.205661E-2	3.927877E-2
10/19/2017  17:22:11.419404	-1.855062E+0	2.082484E-2	2.155331E-2	-1.013632E+1	2.987847E-2	2.455003E-2	7.205661E-2	3.419094E-2
10/19/2017  17:22:11.420404	-9.348584E-1	1.828100E-2	1.137250E-2	-1.014142E+1	2.222863E-2	2.963800E-2	7.205661E-2	3.164702E-2
10/19/2017  17:22:11.421404	2.649645E-1	1.319332E-2	6.282096E-3	-1.014651E+1	1.712873E-2	1.946206E-2	7.714242E-2	2.655919E-2
10/19/2017  17:22:11.422404	9.741819E-1	1.828100E-2	2.664372E-2	-1.014396E+1	2.222863E-2	1.691808E-2	7.459952E-2	3.164702E-2
10/19/2017  17:22:11.423404	1.480039E+0	1.828100E-2	2.155331E-2	-1.013378E+1	1.967868E-2	1.691808E-2	8.222822E-2	3.419094E-2
10/19/2017  17:22:11.424404	1.096198E+0	1.064948E-2	2.918892E-2	-1.013887E+1	1.457878E-2	1.437409E-2	6.951371E-2	3.927877E-2
10/19/2017  17:22:11.425404	9.665559E-1	1.064948E-2	3.173413E-2	-1.012869E+1	1.712873E-2	2.200605E-2	7.968532E-2	3.419094E-2
10/19/2017  17:22:11.426404	4.225684E-1	1.828100E-2	1.137250E-2	-1.013123E+1	2.732853E-2	1.437409E-2	7.205661E-2	2.910311E-2
10/19/2017  17:22:11.427404	-1.036251E-1	1.064948E-2	1.137250E-2	-1.014651E+1	3.242842E-2	1.946206E-2	7.205661E-2	2.655919E-2
10/19/2017  17:22:11.428404	-4.467948E-1	1.064948E-2	2.155331E-2	-1.014905E+1	2.222863E-2	2.709402E-2	7.459952E-2	2.910311E-2
10/19/2017  17:22:11.429404	-6.654066E-1	1.319332E-2	2.409852E-2	-1.014142E+1	1.457878E-2	1.437409E-2	8.222822E-2	3.673486E-2
10/19/2017  17:22:11.430404	-4.595048E-1	-2.069720E-3	1.900811E-2	-1.013378E+1	1.457878E-2	1.946206E-2	7.459952E-2	3.673486E-2
10/19/2017  17:22:11.431404	1.101282E+0	1.319332E-2	1.646291E-2	-1.013632E+1	2.222863E-2	3.726996E-2	7.714242E-2	3.164702E-2
10/19/2017  17:22:11.432404	4.260985E+0	2.845637E-2	1.137250E-2	-1.013378E+1	3.497837E-2	1.946206E-2	7.459952E-2	3.164702E-2
10/19/2017  17:22:11.433404	5.000706E+0	1.319332E-2	1.646291E-2	-1.012614E+1	2.477858E-2	2.200605E-2	7.459952E-2	2.401527E-2
10/19/2017  17:22:11.434404	4.799888E+0	3.017961E-3	2.664372E-2	-1.013378E+1	2.222863E-2	2.963800E-2	8.222822E-2	3.419094E-2
10/19/2017  17:22:11.435404	-6.399866E-1	1.319332E-2	2.664372E-2	-1.013378E+1	1.712873E-2	2.455003E-2	8.222822E-2	4.182269E-2
10/19/2017  17:22:11.436404	-3.115892E+0	1.064948E-2	1.646291E-2	-1.013632E+1	1.967868E-2	1.437409E-2	7.459952E-2	3.419094E-2
10/19/2017  17:22:11.437404	-4.890207E+0	1.573716E-2	1.391770E-2	-1.015160E+1	1.967868E-2	2.455003E-2	7.714242E-2	2.910311E-2
10/19/2017  17:22:11.438404	-1.300906E+0	1.573716E-2	1.391770E-2	-1.014142E+1	3.242842E-2	1.946206E-2	7.205661E-2	3.673486E-2
10/19/2017  17:22:11.439404	-1.120424E+0	2.082484E-2	1.900811E-2	-1.014905E+1	2.732853E-2	2.709402E-2	6.697081E-2	2.910311E-2
10/19/2017  17:22:11.440404	-2.104177E+0	1.828100E-2	2.155331E-2	-1.014396E+1	1.457878E-2	2.963800E-2	7.459952E-2	2.401527E-2
10/19/2017  17:22:11.441404	-1.895734E+0	1.064948E-2	1.391770E-2	-1.013378E+1	2.477858E-2	2.455003E-2	8.222822E-2	3.164702E-2
10/19/2017  17:22:11.442404	-3.934129E-1	2.082484E-2	2.409852E-2	-1.013378E+1	9.478889E-3	1.691808E-2	7.714242E-2	3.673486E-2
10/19/2017  17:22:11.443404	1.785366E-1	1.064948E-2	1.137250E-2	-1.014651E+1	1.967868E-2	9.286120E-3	7.714242E-2	3.927877E-2
								
10/19/2017  17:22:11.444404	8.801280E-1	8.105642E-3	2.155331E-2	-1.013123E+1	2.987847E-2	1.946206E-2	7.205661E-2	3.673486E-2
10/19/2017  17:22:11.445404	1.658266E-1	1.573716E-2	1.391770E-2	-1.011596E+1	2.987847E-2	2.200605E-2	7.205661E-2	2.910311E-2
10/19/2017  17:22:11.446404	4.784923E-1	1.573716E-2	1.391770E-2	-1.013378E+1	1.967868E-2	1.437409E-2	7.714242E-2	3.164702E-2
10/19/2017  17:22:11.447404	2.128249E+0	2.336868E-2	1.900811E-2	-1.014651E+1	2.222863E-2	2.200605E-2	7.968532E-2	3.164702E-2
10/19/2017  17:22:11.448404	5.801723E-1	1.573716E-2	2.155331E-2	-1.013632E+1	1.712873E-2	1.691808E-2	7.968532E-2	3.164702E-2
10/19/2017  17:22:11.449404	-1.847436E+0	1.064948E-2	2.155331E-2	-1.013887E+1	1.457878E-2	6.742135E-3	7.459952E-2	3.927877E-2
10/19/2017  17:22:11.450404	-2.012665E+0	4.741205E-4	2.409852E-2	-1.013378E+1	1.712873E-2	1.946206E-2	7.714242E-2	4.182269E-2
10/19/2017  17:22:11.451404	-9.221484E-1	1.319332E-2	1.900811E-2	-1.014142E+1	1.967868E-2	1.437409E-2	9.494273E-2	3.164702E-2
10/19/2017  17:22:11.452404	-1.570071E-1	1.828100E-2	1.191689E-3	-1.013378E+1	2.477858E-2	1.437409E-2	6.951371E-2	3.164702E-2
10/19/2017  17:22:11.453404	1.632846E-1	2.336868E-2	1.391770E-2	-1.013887E+1	2.477858E-2	1.946206E-2	6.188501E-2	2.655919E-2
10/19/2017  17:22:11.454404	3.412245E-1	2.336868E-2	3.173413E-2	-1.014142E+1	2.477858E-2	2.963800E-2	7.968532E-2	2.910311E-2
10/19/2017  17:22:11.455404	-9.345713E-2	1.064948E-2	1.900811E-2	-1.013887E+1	1.967868E-2	1.946206E-2	7.714242E-2	3.164702E-2
10/19/2017  17:22:11.456404	9.465070E-2	2.082484E-2	3.173413E-2	-1.014396E+1	9.478889E-3	2.455003E-2	8.731403E-2	2.910311E-2
10/19/2017  17:22:11.457404	2.929265E-1	5.561801E-3	2.664372E-2	-1.014142E+1	1.712873E-2	2.200605E-2	8.731403E-2	3.927877E-2
10/19/2017  17:22:11.458404	-9.806143E-1	1.064948E-2	-6.443920E-3	-1.013378E+1	2.477858E-2	9.286120E-3	7.714242E-2	4.182269E-2
10/19/2017  17:22:11.459404	-1.438174E+0	1.064948E-2	1.391770E-2	-1.014396E+1	2.732853E-2	2.455003E-2	6.697081E-2	2.655919E-2
10/19/2017  17:22:11.460404	2.090406E-1	2.082484E-2	1.900811E-2	-1.013887E+1	2.222863E-2	4.490191E-2	7.459952E-2	2.910311E-2
10/19/2017  17:22:11.461404	8.369140E-1	5.561801E-3	1.646291E-2	-1.014142E+1	2.477858E-2	2.455003E-2	8.222822E-2	3.164702E-2
10/19/2017  17:22:11.462404	9.970599E-1	1.064948E-2	2.409852E-2	-1.013887E+1	1.457878E-2	1.183011E-2	8.222822E-2	2.147136E-2
10/19/2017  17:22:11.463404	1.230924E+0	1.828100E-2	2.664372E-2	-1.013887E+1	1.202884E-2	1.691808E-2	8.222822E-2	4.182269E-2
10/19/2017  17:22:11.464404	1.866423E+0	1.573716E-2	1.900811E-2	-1.013123E+1	1.967868E-2	2.200605E-2	7.459952E-2	3.673486E-2
10/19/2017  17:22:11.465404	8.194071E-2	4.741205E-4	1.900811E-2	-1.012614E+1	1.457878E-2	1.437409E-2	7.205661E-2	4.182269E-2
10/19/2017  17:22:11.466404	1.586803E+0	8.105642E-3	1.391770E-2	-1.013123E+1	2.987847E-2	1.183011E-2	7.205661E-2	3.164702E-2
10/19/2017  17:22:11.467404	-2.688550E-1	1.319332E-2	1.646291E-2	-1.013632E+1	4.517816E-2	1.946206E-2	7.459952E-2	2.147136E-2
10/19/2017  17:22:11.468404	-4.343677E+0	2.336868E-2	2.155331E-2	-1.015669E+1	1.712873E-2	2.455003E-2	7.714242E-2	2.401527E-2
10/19/2017  17:22:11.469404	-3.390428E+0	2.082484E-2	2.664372E-2	-1.014905E+1	1.457878E-2	2.200605E-2	8.731403E-2	3.673486E-2
10/19/2017  17:22:11.470404	-1.781344E+0	8.105642E-3	3.173413E-2	-1.013887E+1	1.712873E-2	2.455003E-2	8.731403E-2	3.673486E-2
10/19/2017  17:22:11.471404	-2.892197E+0	8.105642E-3	1.900811E-2	-1.013378E+1	1.967868E-2	1.691808E-2	7.714242E-2	4.182269E-2
10/19/2017  17:22:11.472404	-6.247347E-1	1.573716E-2	1.137250E-2	-1.013632E+1	2.477858E-2	2.200605E-2	7.205661E-2	3.164702E-2
10/19/2017  17:22:11.473404	6.284702E-1	1.064948E-2	1.646291E-2	-1.014142E+1	2.732853E-2	2.200605E-2	6.951371E-2	2.401527E-2
10/19/2017  17:22:11.474404	3.711913E+0	2.082484E-2	2.155331E-2	-1.014396E+1	2.222863E-2	1.183011E-2	6.951371E-2	2.401527E-2
10/19/2017  17:22:11.475404	1.914721E+0	1.828100E-2	3.173413E-2	-1.013632E+1	1.712873E-2	2.709402E-2	8.222822E-2	2.910311E-2
10/19/2017  17:22:11.476404	3.213682E+0	1.573716E-2	2.409852E-2	-1.010577E+1	1.457878E-2	1.691808E-2	9.239983E-2	3.164702E-2
								
10/19/2017  17:22:11.477404	8.572500E-1	1.573716E-2	1.391770E-2	-1.013378E+1	1.712873E-2	1.183011E-2	8.222822E-2	3.673486E-2
10/19/2017  17:22:11.478404	-5.433907E-1	5.561801E-3	1.900811E-2	-1.013123E+1	1.967868E-2	9.286120E-3	6.951371E-2	3.164702E-2
10/19/2017  17:22:11.479404	1.579177E+0	4.741205E-4	1.137250E-2	-1.013632E+1	1.967868E-2	2.455003E-2	7.714242E-2	3.164702E-2
10/19/2017  17:22:11.480404	1.785366E-1	1.064948E-2	1.391770E-2	-1.013378E+1	2.477858E-2	2.200605E-2	7.714242E-2	2.910311E-2
10/19/2017  17:22:11.481404	1.230924E+0	1.573716E-2	1.900811E-2	-1.013887E+1	1.967868E-2	1.437409E-2	7.714242E-2	2.655919E-2
10/19/2017  17:22:11.482404	3.472966E+0	2.591253E-2	1.646291E-2	-1.014142E+1	2.477858E-2	2.709402E-2	8.477112E-2	2.147136E-2
10/19/2017  17:22:11.483404	5.005790E+0	1.828100E-2	3.682453E-2	-1.013123E+1	2.222863E-2	1.691808E-2	7.459952E-2	3.164702E-2
10/19/2017  17:22:11.484404	1.355482E+0	1.064948E-2	1.900811E-2	-1.012869E+1	1.202884E-2	2.200605E-2	7.968532E-2	3.673486E-2
10/19/2017  17:22:11.485404	-5.891467E-1	1.828100E-2	2.155331E-2	-1.013887E+1	1.457878E-2	9.286120E-3	7.714242E-2	3.927877E-2
10/19/2017  17:22:11.486404	-1.992329E+0	1.573716E-2	1.900811E-2	-1.014396E+1	2.477858E-2	1.437409E-2	7.714242E-2	4.182269E-2
10/19/2017  17:22:11.487404	-4.801237E+0	1.828100E-2	1.900811E-2	-1.014142E+1	2.477858E-2	1.437409E-2	7.459952E-2	2.910311E-2
10/19/2017  17:22:11.488404	-2.846441E+0	8.105642E-3	1.900811E-2	-1.014651E+1	2.222863E-2	1.946206E-2	7.714242E-2	3.164702E-2
10/19/2017  17:22:11.489404	-9.882403E-1	2.591253E-2	1.900811E-2	-1.013887E+1	2.222863E-2	4.235793E-2	7.714242E-2	3.164702E-2
10/19/2017  17:22:11.490404	-3.400309E-1	2.082484E-2	2.409852E-2	-1.013378E+1	1.457878E-2	2.963800E-2	7.459952E-2	3.419094E-2
10/19/2017  17:22:11.491404	-4.137488E-1	1.319332E-2	2.409852E-2	-1.012614E+1	1.712873E-2	1.183011E-2	8.222822E-2	3.673486E-2
10/19/2017  17:22:11.492404	-2.078470E-1	2.591253E-2	1.900811E-2	-1.012869E+1	2.987847E-2	1.437409E-2	7.714242E-2	3.673486E-2
10/19/2017  17:22:11.493404	-3.578249E-1	1.064948E-2	1.900811E-2	-1.014142E+1	2.222863E-2	1.437409E-2	7.459952E-2	2.401527E-2
10/19/2017  17:22:11.494404	1.839076E-2	4.741205E-4	1.391770E-2	-1.014651E+1	1.967868E-2	2.455003E-2	6.697081E-2	2.655919E-2
10/19/2017  17:22:11.495404	-4.086648E-1	2.082484E-2	1.137250E-2	-1.013887E+1	2.987847E-2	2.963800E-2	7.205661E-2	2.401527E-2
10/19/2017  17:22:11.496404	-3.070136E+0	1.828100E-2	2.155331E-2	-1.014142E+1	3.497837E-2	2.455003E-2	7.714242E-2	2.655919E-2
10/19/2017  17:22:11.497404	5.801723E-1	1.064948E-2	2.155331E-2	-1.013123E+1	2.222863E-2	2.200605E-2	7.459952E-2	3.164702E-2
10/19/2017  17:22:11.498404	2.082493E+0	1.319332E-2	2.918892E-2	-1.013378E+1	2.987847E-2	2.200605E-2	8.222822E-2	3.673486E-2
10/19/2017  17:22:11.499404	1.464787E+0	1.064948E-2	2.664372E-2	-1.013123E+1	1.457878E-2	1.183011E-2	8.222822E-2	3.927877E-2
10/19/2017  17:22:11.500404	1.124447E-1	5.561801E-3	1.900811E-2	-1.013123E+1	1.202884E-2	1.691808E-2	7.205661E-2	2.655919E-2
10/19/2017  17:22:11.501404	4.957492E+0	1.064948E-2	1.137250E-2	-1.013887E+1	2.987847E-2	6.742135E-3	6.951371E-2	2.910311E-2
10/19/2017  17:22:11.502404	5.010874E+0	1.573716E-2	1.391770E-2	-1.013378E+1	2.987847E-2	1.946206E-2	7.205661E-2	1.638352E-2
10/19/2017  17:22:11.503404	-8.204685E-1	1.064948E-2	8.827299E-3	-1.012359E+1	1.967868E-2	1.946206E-2	7.205661E-2	2.401527E-2
10/19/2017  17:22:11.504404	-4.943589E+0	1.828100E-2	1.900811E-2	-1.015415E+1	2.222863E-2	2.963800E-2	7.968532E-2	1.892744E-2
10/19/2017  17:22:11.505404	-4.938505E+0	1.573716E-2	2.918892E-2	-1.013378E+1	1.457878E-2	2.455003E-2	8.222822E-2	3.164702E-2
10/19/2017  17:22:11.506404	-2.688837E+0	1.828100E-2	2.155331E-2	-1.014396E+1	2.222863E-2	1.691808E-2	7.968532E-2	2.147136E-2
10/19/2017  17:22:11.507404	-2.785433E+0	1.064948E-2	2.155331E-2	-1.012614E+1	2.477858E-2	1.183011E-2	8.222822E-2	3.673486E-2
10/19/2017  17:22:11.508404	-5.281387E-1	2.082484E-2	2.918892E-2	-1.013123E+1	2.477858E-2	1.437409E-2	7.968532E-2	2.910311E-2
10/19/2017  17:22:11.509404	-1.188771E-1	1.064948E-2	1.391770E-2	-1.013632E+1	2.222863E-2	1.946206E-2	5.934210E-2	3.164702E-2
								
10/19/2017  17:22:11.510404	-2.256410E-1	1.064948E-2	3.736893E-3	-1.013632E+1	2.477858E-2	3.472597E-2	6.951371E-2	2.655919E-2
10/19/2017  17:22:11.511404	8.648760E-1	2.082484E-2	2.409852E-2	-1.014142E+1	2.477858E-2	2.709402E-2	8.985693E-2	3.164702E-2
10/19/2017  17:22:11.512404	1.238550E+0	1.064948E-2	1.646291E-2	-1.013123E+1	1.457878E-2	1.691808E-2	7.968532E-2	3.164702E-2
10/19/2017  17:22:11.513404	1.988726E-1	1.064948E-2	2.155331E-2	-1.013632E+1	2.477858E-2	2.200605E-2	7.459952E-2	3.673486E-2
10/19/2017  17:22:11.514404	1.116534E+0	1.064948E-2	3.173413E-2	-1.013123E+1	2.732853E-2	1.691808E-2	7.459952E-2	4.182269E-2
10/19/2017  17:22:11.515404	2.522546E-1	1.064948E-2	1.391770E-2	-1.013378E+1	1.967868E-2	1.946206E-2	7.714242E-2	3.164702E-2
10/19/2017  17:22:11.516404	1.286848E+0	1.064948E-2	-3.898717E-3	-1.013123E+1	2.477858E-2	1.946206E-2	7.205661E-2	2.910311E-2
10/19/2017  17:22:11.517404	2.054531E+0	1.573716E-2	1.646291E-2	-1.014142E+1	2.477858E-2	1.946206E-2	7.968532E-2	2.655919E-2
10/19/2017  17:22:11.518404	1.258886E+0	2.082484E-2	1.900811E-2	-1.013632E+1	3.242842E-2	9.286120E-3	7.714242E-2	3.164702E-2
10/19/2017  17:22:11.519404	-1.239898E+0	2.082484E-2	2.664372E-2	-1.013632E+1	1.457878E-2	2.709402E-2	8.222822E-2	2.910311E-2
10/19/2017  17:22:11.520404	-8.662244E-1	1.064948E-2	2.155331E-2	-1.012869E+1	1.967868E-2	2.709402E-2	8.477112E-2	4.436661E-2
10/19/2017  17:22:11.521404	3.412245E-1	2.082484E-2	1.646291E-2	-1.012105E+1	2.477858E-2	1.691808E-2	7.968532E-2	3.927877E-2
10/19/2017  17:22:11.522404	2.598805E-1	1.319332E-2	1.900811E-2	-1.013378E+1	2.477858E-2	9.286120E-3	7.714242E-2	2.655919E-2
10/19/2017  17:22:11.523404	1.330677E-2	2.591253E-2	1.391770E-2	-1.014142E+1	3.242842E-2	1.946206E-2	6.951371E-2	3.673486E-2
10/19/2017  17:22:11.524404	-1.137931E-1	2.082484E-2	1.391770E-2	-1.014142E+1	2.732853E-2	2.455003E-2	6.951371E-2	2.655919E-2
10/19/2017  17:22:11.525404	-4.035809E-1	8.105642E-3	1.900811E-2	-1.014142E+1	9.478889E-3	2.455003E-2	6.951371E-2	2.401527E-2
10/19/2017  17:22:11.526404	-7.975905E-1	1.064948E-2	1.391770E-2	-1.014651E+1	2.222863E-2	1.946206E-2	7.459952E-2	3.164702E-2
10/19/2017  17:22:11.527404	-1.234814E+0	1.573716E-2	2.409852E-2	-1.013632E+1	3.242842E-2	2.200605E-2	8.985693E-2	3.673486E-2
10/19/2017  17:22:11.528404	-2.040627E+0	5.561801E-3	2.409852E-2	-1.013887E+1	1.457878E-2	1.437409E-2	8.222822E-2	3.927877E-2
10/19/2017  17:22:11.529404	-2.713970E-1	8.105642E-3	1.646291E-2	-1.012869E+1	9.478889E-3	1.691808E-2	6.951371E-2	3.419094E-2
10/19/2017  17:22:11.530404	8.979220E-1	1.319332E-2	1.391770E-2	-1.012614E+1	2.222863E-2	2.455003E-2	7.968532E-2	2.910311E-2
10/19/2017  17:22:11.531404	2.041821E+0	1.319332E-2	1.646291E-2	-1.013632E+1	1.457878E-2	1.946206E-2	7.459952E-2	2.147136E-2
10/19/2017  17:22:11.532404	2.540052E+0	1.828100E-2	1.137250E-2	-1.013887E+1	2.222863E-2	2.200605E-2	7.968532E-2	2.401527E-2
10/19/2017  17:22:11.533404	2.949314E+0	1.573716E-2	2.155331E-2	-1.013378E+1	2.477858E-2	1.946206E-2	7.968532E-2	3.419094E-2
10/19/2017  17:22:11.534404	5.217063E-1	1.319332E-2	2.918892E-2	-1.011341E+1	2.222863E-2	2.709402E-2	8.222822E-2	2.910311E-2
