Parameters: 	Upper Cutoff:  500	Lower Cutoff: 20	Sample Rate (Hz): 1000	Frames Per Second30	Display Window Size (S)100	MVC Window Size (s): 100	Seconds To Acquire MVC: 3	Display Channel: 0
waveform	[0]	[1]	[2]	[3]	[4]	[5]	[6]	[7]
t0	10/19/2017  17:27:25.798196	10/19/2017  17:27:25.798196	10/19/2017  17:27:25.798196	10/19/2017  17:27:25.798196	10/19/2017  17:27:25.798196	10/19/2017  17:27:25.798196	10/19/2017  17:27:25.798196	10/19/2017  17:27:25.798196
delta t	0.001000	0.001000	0.001000	0.001000	0.001000	0.001000	0.001000	0.001000

time	Y[0]	Y[1]	Y[2]	Y[3]	Y[4]	Y[5]	Y[6]	Y[7]
10/19/2017  17:27:25.773926	5.181301E-2	9.562432E-3	9.342307E-4	1.797021E-2	1.892392E-3	1.258135E-3	4.702196E-3	1.016997E-3
10/19/2017  17:27:25.774926	1.951033E-1	2.262525E-3	1.013619E-2	2.305680E-4	3.504480E-3	9.432473E-4	5.496007E-3	7.690942E-3
10/19/2017  17:27:25.775926	1.538079E-1	9.832839E-4	1.823266E-3	1.552555E-2	6.653820E-3	6.736246E-4	1.044384E-2	1.530837E-3
10/19/2017  17:27:25.776926	1.604428E-2	5.483648E-3	1.255699E-2	2.248470E-3	4.403394E-3	1.034751E-2	5.911344E-3	4.807868E-3
10/19/2017  17:27:25.777926	1.734874E-1	2.281756E-3	2.898839E-4	1.999567E-3	1.387904E-3	2.679159E-3	1.528707E-2	8.169821E-3
10/19/2017  17:27:25.778926	4.488906E-1	3.057759E-3	2.086124E-3	1.037928E-2	5.677235E-3	9.487826E-3	2.414738E-3	4.233855E-3
10/19/2017  17:27:25.779926	2.590766E-2	1.839143E-3	1.547822E-3	5.116787E-3	4.458300E-3	7.053216E-3	6.463177E-3	1.201896E-2
10/19/2017  17:27:25.780926	9.914571E-1	3.385395E-3	9.709901E-3	1.121126E-3	9.370184E-3	7.976122E-3	6.951399E-3	4.105423E-3
10/19/2017  17:27:25.781926	2.219240E-1	7.020934E-3	2.084251E-3	8.536294E-4	9.207924E-3	3.155306E-3	5.098991E-4	6.150312E-3
10/19/2017  17:27:25.782926	9.211236E-1	5.006541E-3	6.195160E-3	4.313539E-3	9.228867E-3	1.916666E-3	1.463087E-4	1.806389E-3
10/19/2017  17:27:25.783926	8.295715E-1	1.148535E-3	4.069262E-3	3.579936E-3	6.667475E-3	1.003131E-3	8.773025E-3	1.226880E-3
10/19/2017  17:27:25.784926	3.938824E-1	6.032987E-3	4.779526E-3	1.382796E-3	2.328718E-3	1.601976E-2	4.005375E-3	3.072857E-3
10/19/2017  17:27:25.785926	2.519491E+0	1.958488E-2	3.600991E-3	7.004854E-3	3.378336E-3	2.322373E-3	1.042553E-2	3.813889E-3
10/19/2017  17:27:25.786926	1.487287E+0	3.965431E-3	9.507138E-3	2.298461E-3	9.065175E-3	1.203422E-2	5.246094E-3	4.534571E-3
10/19/2017  17:27:25.787926	2.506903E+0	1.217204E-2	4.694478E-3	6.812123E-3	3.515492E-4	2.857709E-4	1.255048E-3	8.252732E-3
10/19/2017  17:27:25.788926	2.374688E+0	4.605572E-3	9.924264E-4	1.413356E-2	2.750954E-3	4.794464E-3	1.713012E-3	1.965728E-3
10/19/2017  17:27:25.789926	3.198398E-1	9.688427E-3	2.564767E-3	7.974289E-3	4.273368E-3	7.954082E-4	1.651499E-3	4.643765E-4
10/19/2017  17:27:25.790926	4.578488E-1	4.217632E-3	7.264814E-3	3.336619E-3	1.717477E-3	4.558268E-4	1.235147E-2	2.167319E-3
10/19/2017  17:27:25.791926	5.306211E-1	9.685308E-3	7.566766E-3	9.208989E-3	5.992379E-3	2.335461E-3	8.701236E-3	1.054920E-3
10/19/2017  17:27:25.792926	4.681248E-1	6.686163E-3	5.514508E-3	4.390338E-3	4.492813E-3	7.878083E-3	3.002363E-3	1.202967E-3
10/19/2017  17:27:25.793926	6.218335E-1	3.099503E-3	1.719688E-3	3.612795E-3	1.835432E-2	5.805800E-3	7.035924E-3	3.031448E-3
10/19/2017  17:27:25.794926	2.531818E-1	4.714457E-3	1.050229E-3	5.820723E-4	1.478226E-3	8.965694E-3	5.342762E-3	1.136303E-2
10/19/2017  17:27:25.795926	8.928258E-1	3.507720E-3	1.664679E-3	9.179014E-3	6.508769E-3	4.372886E-3	2.579094E-3	1.258841E-2
10/19/2017  17:27:25.796926	6.443080E-1	4.622976E-3	3.567644E-3	1.060884E-2	9.886589E-3	8.556466E-4	3.839032E-3	4.222869E-3
10/19/2017  17:27:25.797926	3.974557E-1	8.639968E-4	6.947458E-3	1.267387E-2	5.431096E-3	4.200589E-4	4.545532E-3	2.149585E-2
10/19/2017  17:27:25.798926	2.053487E-1	8.404149E-3	9.052441E-3	2.027504E-2	4.163006E-3	4.256835E-3	5.986691E-3	4.530205E-3
10/19/2017  17:27:25.799926	2.828991E-1	1.772839E-3	9.329689E-3	3.205727E-3	1.263778E-3	3.344362E-3	2.548832E-3	3.589656E-3
10/19/2017  17:27:25.800926	3.266357E-2	3.071100E-3	4.906091E-3	7.132333E-3	1.375842E-3	4.307026E-3	2.139547E-3	1.504360E-3
10/19/2017  17:27:25.801926	5.747406E-2	1.071903E-2	6.455646E-4	9.983601E-3	3.280814E-3	7.632694E-3	1.761937E-3	5.702992E-3
10/19/2017  17:27:25.802926	1.362230E-1	2.735308E-3	2.444162E-3	2.957569E-3	8.663178E-3	7.217428E-3	7.888691E-3	1.584776E-4
10/19/2017  17:27:25.803926	1.543618E-1	1.185112E-2	5.027641E-3	2.075503E-3	8.197963E-3	8.583657E-3	9.653966E-3	6.538105E-3
10/19/2017  17:27:25.804926	1.008451E-1	4.603566E-3	3.708219E-3	2.995632E-3	5.545554E-3	8.833253E-3	4.591486E-3	3.274653E-5
10/19/2017  17:27:25.805926	2.155752E-1	9.430637E-3	8.217968E-3	4.824349E-5	4.426583E-3	2.446362E-6	3.597904E-3	4.672463E-3
								
10/19/2017  17:27:25.806926	6.592874E-2	4.681513E-3	3.010810E-3	4.221832E-3	5.621139E-3	2.275955E-3	9.349940E-3	5.697349E-3
10/19/2017  17:27:25.807926	6.365747E-1	2.588599E-3	6.307034E-3	4.917453E-3	2.487326E-4	6.980895E-3	1.089904E-4	4.002349E-3
10/19/2017  17:27:25.808926	7.802089E-2	1.177164E-2	6.731421E-3	5.654678E-3	2.291876E-3	1.795415E-3	1.050466E-4	1.754249E-3
10/19/2017  17:27:25.809926	2.037995E+0	2.174453E-3	2.872438E-3	2.252460E-3	5.807436E-3	1.237036E-2	4.600385E-3	1.543777E-3
10/19/2017  17:27:25.810926	6.695702E-1	1.027419E-2	2.121881E-3	2.688168E-4	4.942242E-3	4.337342E-3	9.829877E-4	1.358896E-3
10/19/2017  17:27:25.811926	7.499840E-1	4.959551E-4	6.870307E-4	1.307769E-2	5.999221E-3	1.187721E-2	6.271461E-4	1.198850E-2
10/19/2017  17:27:25.812926	3.511882E-1	8.779853E-3	8.104457E-3	1.344549E-2	6.516481E-6	9.149300E-3	6.795394E-3	3.985452E-3
10/19/2017  17:27:25.813926	2.685170E-1	1.465371E-5	5.389924E-3	6.407918E-3	8.672692E-3	1.308716E-2	9.862722E-5	1.278301E-2
10/19/2017  17:27:25.814926	1.017820E+0	8.481570E-3	5.515483E-3	1.832476E-2	4.979478E-3	1.983532E-3	1.691023E-3	2.696676E-3
10/19/2017  17:27:25.815926	4.460269E-1	7.438942E-3	2.383789E-3	4.487415E-3	1.628040E-3	1.064713E-2	3.774383E-3	3.925561E-4
10/19/2017  17:27:25.816926	1.047379E+0	5.136350E-3	7.341483E-5	1.384145E-3	7.811805E-3	1.323908E-3	1.122295E-3	4.673489E-4
10/19/2017  17:27:25.817926	3.608885E-2	3.357859E-3	2.776216E-3	9.003709E-4	5.410720E-3	1.118797E-3	1.215787E-2	5.263758E-4
10/19/2017  17:27:25.818926	2.893667E-1	7.356669E-4	2.480894E-3	1.265020E-2	1.823537E-2	4.971437E-3	1.487080E-4	5.905059E-3
10/19/2017  17:27:25.819926	8.673748E-2	3.174424E-3	4.288502E-3	8.871714E-3	1.901508E-4	1.013874E-3	6.350502E-3	9.200945E-3
10/19/2017  17:27:25.820926	4.418580E-1	5.040976E-4	2.445305E-3	2.936732E-3	6.990297E-3	6.240791E-3	6.413706E-3	8.373385E-3
10/19/2017  17:27:25.821926	5.680967E-1	5.063361E-3	5.530130E-3	2.215930E-2	7.673911E-4	1.742153E-3	6.818503E-3	5.499172E-3
10/19/2017  17:27:25.822926	3.575032E-1	8.131225E-3	4.591838E-3	3.900471E-3	2.746857E-3	1.247910E-3	3.123903E-3	9.838327E-3
10/19/2017  17:27:25.823926	3.771823E-1	2.995158E-3	1.021565E-2	1.239565E-3	4.041973E-3	9.489222E-4	6.810243E-3	3.218565E-3
10/19/2017  17:27:25.824926	8.258584E-1	4.416294E-3	2.996171E-3	5.953439E-3	6.933012E-3	2.461824E-3	4.830697E-3	2.207879E-2
10/19/2017  17:27:25.825926	5.495023E-1	5.245150E-3	2.113431E-4	2.384603E-2	2.166884E-3	9.126251E-4	3.151109E-3	8.173027E-5
10/19/2017  17:27:25.826926	4.741921E-1	5.203524E-3	1.118964E-2	7.609771E-3	1.083986E-2	3.338205E-3	6.885924E-3	1.367711E-2
10/19/2017  17:27:25.827926	9.775284E-1	1.707774E-3	3.479957E-3	1.486273E-2	5.798949E-3	1.514530E-3	9.527639E-3	7.896126E-3
10/19/2017  17:27:25.828926	3.889187E-1	7.743982E-3	1.088253E-2	8.631836E-3	2.654519E-4	1.451467E-2	4.098436E-3	3.376785E-3
10/19/2017  17:27:25.829926	1.226274E+0	3.398859E-3	3.034795E-3	2.751705E-3	3.106215E-4	1.027606E-2	9.403325E-3	4.368700E-3
10/19/2017  17:27:25.830926	7.845640E-1	5.080084E-4	4.340950E-3	2.104667E-3	6.838144E-3	4.098705E-3	1.870192E-4	1.128846E-3
10/19/2017  17:27:25.831926	2.789634E-1	4.907026E-3	7.881856E-4	3.172365E-3	1.754505E-3	3.542745E-3	4.979596E-3	7.385113E-3
10/19/2017  17:27:25.832926	8.688615E-1	3.549375E-3	6.163103E-3	4.700948E-3	7.867467E-3	8.843009E-4	3.931508E-3	9.378993E-3
10/19/2017  17:27:25.833926	3.461138E-1	2.408305E-3	4.434104E-3	3.444657E-3	3.238703E-3	1.013971E-3	1.165427E-2	4.776692E-3
10/19/2017  17:27:25.834926	4.645291E-2	2.854713E-3	3.486923E-3	4.096652E-3	8.936568E-3	1.283476E-2	5.885335E-4	1.265404E-2
10/19/2017  17:27:25.835926	1.401989E-1	6.526363E-3	3.868248E-4	9.334486E-3	2.151665E-3	3.651645E-3	5.092222E-3	2.662816E-3
10/19/2017  17:27:25.836926	8.519082E-2	2.296125E-4	8.921630E-3	3.176880E-4	5.124805E-3	1.488235E-2	5.964057E-3	4.657598E-3
10/19/2017  17:27:25.837926	2.540048E-1	1.512841E-2	4.814792E-3	5.147065E-3	5.809959E-3	5.278014E-4	2.315445E-3	1.077287E-3
10/19/2017  17:27:25.838926	3.786286E-1	1.737733E-3	5.890723E-3	8.432894E-3	6.960114E-3	9.945484E-3	3.865709E-3	8.462727E-4
								
10/19/2017  17:27:25.839926	1.864392E-1	2.529799E-2	2.099886E-3	1.787236E-3	5.029266E-3	1.325612E-2	1.670750E-3	1.514710E-3
10/19/2017  17:27:25.840926	3.644314E-2	3.887134E-3	1.441086E-3	9.565623E-3	9.320311E-4	7.826742E-3	3.429562E-3	7.651581E-3
10/19/2017  17:27:25.841926	2.824861E-2	3.186381E-3	1.205728E-2	8.648114E-3	5.203912E-3	3.575194E-3	2.193263E-4	3.378068E-3
10/19/2017  17:27:25.842926	3.349725E-1	6.889799E-3	3.973544E-4	9.742680E-3	5.887022E-3	3.416373E-4	2.113974E-3	4.707769E-3
10/19/2017  17:27:25.843926	3.893217E-1	6.224259E-4	7.236276E-3	9.625970E-3	3.930500E-3	1.384790E-4	5.862643E-3	3.292936E-3
10/19/2017  17:27:25.844926	9.208718E-2	1.759600E-3	7.543730E-3	6.011100E-3	1.067729E-2	8.599692E-3	1.810035E-3	2.209149E-3
10/19/2017  17:27:25.845926	1.172616E+0	7.707835E-3	5.535224E-3	2.902751E-4	5.582243E-3	3.462538E-3	5.532990E-3	1.770391E-3
10/19/2017  17:27:25.846926	1.142544E-1	1.338232E-3	3.900388E-3	2.667300E-3	1.646175E-3	4.650577E-4	6.270197E-3	1.383628E-3
10/19/2017  17:27:25.847926	9.165272E-1	1.353414E-3	3.953836E-3	5.670080E-5	9.946047E-3	7.668599E-3	6.438152E-3	1.113129E-3
10/19/2017  17:27:25.848926	5.800286E-1	7.812398E-3	2.968024E-3	1.463975E-4	3.789613E-3	8.250909E-3	4.121381E-3	1.460558E-3
10/19/2017  17:27:25.849926	9.307110E-2	1.327341E-3	4.286549E-3	8.927137E-3	4.851794E-3	3.105077E-4	2.903099E-3	1.090226E-3
10/19/2017  17:27:25.850926	4.262794E-2	9.099918E-4	3.610820E-3	1.758365E-2	3.212723E-3	2.127324E-3	1.106932E-2	7.701471E-4
10/19/2017  17:27:25.851926	1.249288E-1	1.600741E-3	2.665814E-3	3.461801E-3	2.478337E-3	7.633534E-3	3.114731E-3	1.992252E-2
10/19/2017  17:27:25.852926	3.314518E-2	1.185671E-3	1.863905E-3	2.202949E-2	4.337738E-3	8.223187E-3	1.535977E-2	6.111602E-3
10/19/2017  17:27:25.853926	8.542531E-2	5.152899E-3	1.198962E-2	1.668437E-3	5.503178E-3	4.195191E-3	6.187432E-3	9.553115E-3
10/19/2017  17:27:25.854926	3.840280E-1	3.029817E-3	2.907340E-3	1.412804E-3	8.257821E-3	1.407089E-2	1.386230E-3	7.332909E-3
10/19/2017  17:27:25.855926	7.739693E-1	1.095519E-2	9.241999E-3	3.119274E-3	1.181042E-3	3.233328E-3	6.540912E-3	3.261458E-3
10/19/2017  17:27:25.856926	8.210934E-1	5.442018E-3	6.937261E-3	1.875428E-3	6.180673E-3	9.117285E-3	3.401381E-3	1.794044E-4
10/19/2017  17:27:25.857926	1.282635E-1	1.917245E-3	7.121647E-3	2.997366E-3	9.073543E-3	4.326035E-3	9.680824E-3	4.215526E-3
10/19/2017  17:27:25.858926	4.969223E-2	7.939467E-3	1.740410E-3	1.152393E-2	7.038221E-5	2.833418E-3	3.007371E-3	5.028580E-3
10/19/2017  17:27:25.859926	1.022516E+0	7.586318E-3	1.672223E-2	4.222230E-3	2.334862E-3	5.926622E-3	1.924170E-3	3.270207E-3
10/19/2017  17:27:25.860926	9.073948E-1	1.248438E-2	8.298333E-4	5.527190E-3	8.192201E-3	5.109227E-3	5.377897E-3	1.673851E-3
10/19/2017  17:27:25.861926	2.430177E-1	4.809804E-3	1.716277E-2	1.466462E-3	3.362233E-3	1.933774E-2	3.195004E-3	3.498689E-3
10/19/2017  17:27:25.862926	4.395611E-1	9.851589E-3	1.252862E-3	5.942073E-4	1.113033E-2	6.214194E-4	7.092188E-3	2.762539E-3
10/19/2017  17:27:25.863926	7.434857E-1	4.276136E-3	4.964717E-4	2.269124E-3	8.098795E-3	8.621363E-3	7.421738E-3	4.882345E-5
10/19/2017  17:27:25.864926	7.238709E-1	1.861976E-2	4.439107E-3	4.272298E-3	3.124486E-3	6.287701E-3	2.976953E-3	4.231436E-3
10/19/2017  17:27:25.865926	3.050732E-1	6.510355E-3	9.990759E-3	9.871382E-3	2.697223E-4	8.621200E-3	4.111159E-4	4.883114E-3
10/19/2017  17:27:25.866926	1.772248E-1	1.039070E-2	7.062310E-3	4.900400E-4	3.862415E-4	1.673389E-3	7.206906E-3	5.691431E-3
10/19/2017  17:27:25.867926	5.455354E-1	1.328761E-2	2.444512E-3	1.721166E-4	2.636014E-3	1.287964E-3	1.130727E-3	1.306908E-2
10/19/2017  17:27:25.868926	4.267287E-1	1.902358E-2	5.359697E-3	1.737091E-2	1.280306E-2	3.070609E-3	5.731215E-4	4.814156E-3
10/19/2017  17:27:25.869926	3.547150E-1	1.440120E-3	8.616499E-3	5.429257E-3	1.077554E-2	4.775507E-3	4.419568E-3	1.406700E-3
10/19/2017  17:27:25.870926	1.311981E-1	1.013830E-3	4.101267E-3	7.800905E-3	1.429949E-2	3.778018E-3	4.586139E-4	8.046796E-3
10/19/2017  17:27:25.871926	5.214015E-1	2.831047E-3	1.511028E-3	8.387562E-3	9.812831E-3	5.076562E-3	2.481935E-3	6.032066E-3
								
10/19/2017  17:27:25.872926	8.970848E-1	3.028564E-4	9.760116E-4	1.970902E-3	7.995300E-4	5.791116E-3	2.393794E-3	2.166658E-3
10/19/2017  17:27:25.873926	5.091696E-1	9.020671E-3	5.937120E-3	3.745054E-3	5.111215E-3	4.764391E-3	8.751537E-3	5.029619E-3
10/19/2017  17:27:25.874926	4.333796E-1	1.911147E-3	4.464977E-3	8.120229E-3	1.496589E-3	5.683746E-3	2.140939E-3	1.336117E-3
10/19/2017  17:27:25.875926	8.900348E-1	3.341958E-3	1.216482E-3	3.150865E-3	1.182361E-3	1.759567E-3	3.389717E-3	2.908478E-3
10/19/2017  17:27:25.876926	1.277581E+0	3.775246E-3	1.212322E-3	4.649533E-3	7.393074E-3	1.171283E-3	1.940742E-3	3.872025E-3
10/19/2017  17:27:25.877926	1.001061E-1	6.432846E-3	1.430222E-3	1.177432E-2	1.466225E-3	1.404725E-2	7.869734E-3	1.077297E-2
10/19/2017  17:27:25.878926	2.478381E-1	1.137417E-2	1.124002E-3	7.191391E-3	7.800108E-3	5.395038E-3	3.819171E-3	1.433629E-3
10/19/2017  17:27:25.879926	1.120117E+0	5.008214E-3	5.182606E-3	7.571079E-3	5.514382E-3	6.219315E-3	1.419168E-3	7.501921E-3
10/19/2017  17:27:25.880926	1.038929E+0	5.786243E-3	7.739069E-4	3.319921E-3	5.065424E-3	2.211756E-3	3.510227E-3	7.088740E-3
10/19/2017  17:27:25.881926	6.843435E-1	4.124085E-4	7.198414E-3	2.343126E-4	3.824303E-3	7.267534E-3	2.582366E-3	2.228014E-3
10/19/2017  17:27:25.882926	2.141663E-1	1.588433E-3	6.901944E-4	1.977156E-3	3.724898E-3	3.503746E-3	3.764913E-4	1.106476E-2
10/19/2017  17:27:25.883926	1.806850E-2	1.218751E-2	1.890361E-3	5.612591E-3	4.003721E-3	4.010156E-3	6.119984E-3	1.855410E-3
10/19/2017  17:27:25.884926	3.427167E-1	2.132021E-3	1.016134E-2	7.131497E-4	7.403156E-4	5.877901E-3	1.849834E-3	5.242899E-4
10/19/2017  17:27:25.885926	3.901144E-1	1.170001E-2	2.686886E-3	1.187893E-3	8.133182E-3	2.383184E-3	7.924776E-4	4.356216E-3
10/19/2017  17:27:25.886926	5.763777E-1	3.853001E-3	1.580908E-2	4.040544E-3	3.312726E-3	1.119776E-2	6.542790E-3	1.745620E-3
10/19/2017  17:27:25.887926	3.435912E-1	8.483678E-3	4.650068E-3	1.197187E-3	1.549859E-2	5.469410E-3	5.105552E-3	3.932838E-3
10/19/2017  17:27:25.888926	3.410067E+0	2.423642E-3	1.476876E-3	7.785114E-3	4.548467E-3	8.625079E-3	1.710448E-3	1.182318E-2
10/19/2017  17:27:25.889926	5.939723E-1	7.992601E-3	3.708844E-3	5.079588E-3	5.733368E-3	2.438409E-3	3.520596E-3	8.312341E-3
10/19/2017  17:27:25.890926	1.824405E+0	7.828253E-3	9.503352E-3	5.359497E-3	6.406447E-3	3.817588E-3	6.119261E-3	1.024739E-3
10/19/2017  17:27:25.891926	5.578994E-1	5.277932E-4	2.918860E-4	1.854248E-3	1.050339E-4	2.464916E-3	1.977462E-3	6.513455E-3
10/19/2017  17:27:25.892926	1.379629E-1	8.613753E-3	6.364241E-3	2.903710E-3	6.615601E-3	7.827272E-3	5.441729E-3	3.085870E-3
10/19/2017  17:27:25.893926	5.091832E-1	6.172340E-3	2.095047E-3	1.698313E-2	3.339651E-4	1.246567E-2	4.085219E-3	5.374382E-4
10/19/2017  17:27:25.894926	2.025165E+0	4.529308E-3	5.383159E-4	1.260144E-2	2.273113E-3	2.800604E-3	7.678863E-4	3.050675E-3
10/19/2017  17:27:25.895926	3.795017E-1	8.921899E-4	1.917530E-3	5.309826E-3	9.437326E-3	2.198342E-3	2.653018E-3	6.928530E-3
10/19/2017  17:27:25.896926	9.425834E-1	3.905633E-3	7.168053E-4	2.009520E-3	2.032176E-3	9.131363E-3	3.873420E-3	7.981575E-4
10/19/2017  17:27:25.897926	2.223565E-1	7.261910E-4	4.187802E-4	4.417191E-4	4.938130E-3	2.570524E-3	8.858733E-3	3.638213E-3
10/19/2017  17:27:25.898926	2.783812E-1	5.901010E-3	4.138536E-3	8.627996E-3	5.433661E-3	1.090408E-2	5.280787E-3	1.989265E-3
10/19/2017  17:27:25.899926	2.422357E-1	2.573576E-3	2.906259E-3	3.649046E-4	3.127444E-4	3.449314E-3	6.659178E-3	6.976693E-3
10/19/2017  17:27:25.900926	2.795873E-1	4.272693E-3	8.932426E-3	8.273807E-3	4.225930E-3	8.586915E-3	3.078930E-3	1.282734E-2
10/19/2017  17:27:25.901926	1.880028E-1	1.156152E-3	4.095751E-3	3.212688E-3	9.461194E-3	4.701353E-3	3.926637E-3	1.572829E-2
10/19/2017  17:27:25.902926	2.003025E-1	4.998162E-3	4.047485E-4	1.884861E-2	4.108548E-3	5.398824E-3	2.029654E-3	1.100410E-2
10/19/2017  17:27:25.903926	1.149921E-1	3.190075E-3	2.016090E-3	9.434752E-3	4.325858E-3	1.292964E-3	4.103699E-3	8.210898E-3
10/19/2017  17:27:25.904926	4.328919E-1	4.780708E-3	1.207201E-2	2.084610E-2	5.939881E-3	6.099762E-3	7.590278E-3	6.413517E-4
								
10/19/2017  17:27:25.905926	1.308357E+0	3.870280E-3	8.720165E-3	4.236889E-3	2.549576E-3	2.560362E-3	1.119940E-3	6.990119E-3
10/19/2017  17:27:25.906926	1.744471E-1	7.382304E-3	7.079495E-3	3.847897E-3	2.219680E-5	2.088797E-3	1.008404E-2	4.356325E-4
10/19/2017  17:27:25.907926	5.235361E-2	5.258868E-3	3.432295E-3	8.789976E-4	2.554497E-3	4.784945E-4	1.728521E-3	4.332344E-3
10/19/2017  17:27:25.908926	2.231823E-1	1.305548E-3	2.143036E-3	3.039823E-3	2.117301E-3	6.597695E-3	1.448374E-2	3.271064E-3
10/19/2017  17:27:25.909926	2.323435E-2	5.958325E-3	3.878269E-4	1.454556E-4	1.715938E-3	4.450538E-3	5.719677E-3	2.362794E-3
10/19/2017  17:27:25.910926	2.531783E-1	6.320232E-3	2.161914E-3	2.378076E-3	7.840867E-3	7.930406E-3	1.237333E-3	4.881404E-3
10/19/2017  17:27:25.911926	4.205022E-2	1.883835E-3	7.495202E-3	6.927752E-3	9.765488E-3	5.775832E-3	4.291158E-3	3.398148E-3
10/19/2017  17:27:25.912926	2.535763E-1	7.927257E-3	3.332549E-3	2.501880E-3	4.700582E-3	2.525025E-3	8.158676E-3	4.318684E-3
10/19/2017  17:27:25.913926	8.551740E-1	1.720605E-3	1.973120E-3	9.467478E-3	1.339575E-3	1.926661E-3	4.155853E-3	7.533748E-3
10/19/2017  17:27:25.914926	1.270985E-1	6.435260E-4	3.542013E-3	9.021987E-3	9.975985E-3	5.732826E-3	3.276012E-3	1.299543E-3
10/19/2017  17:27:25.915926	1.901143E+0	2.024073E-3	6.655472E-3	4.702511E-3	2.751454E-3	6.042979E-3	3.541498E-4	1.147949E-3
10/19/2017  17:27:25.916926	1.270377E+0	4.761032E-3	2.242850E-3	1.008699E-2	3.883045E-3	6.997168E-3	2.561452E-3	5.322890E-3
10/19/2017  17:27:25.917926	9.301753E-1	5.709455E-3	1.075331E-2	3.771835E-3	8.510636E-3	1.178063E-2	1.880695E-3	7.018947E-3
10/19/2017  17:27:25.918926	8.314763E-2	1.517014E-2	8.695198E-4	1.790058E-2	8.428597E-3	9.067461E-3	8.581830E-4	4.622922E-4
10/19/2017  17:27:25.919926	7.084781E-1	2.477544E-3	9.198207E-3	7.356490E-3	9.321596E-3	2.228137E-3	9.271107E-3	2.148221E-3
10/19/2017  17:27:25.920926	1.045898E+0	8.643103E-3	3.661741E-4	1.447144E-2	2.193258E-3	3.782397E-3	6.688288E-3	1.795373E-3
10/19/2017  17:27:25.921926	3.652928E-1	1.920210E-3	9.436128E-3	2.647620E-3	3.072350E-3	3.920049E-3	6.302570E-4	1.475920E-3
10/19/2017  17:27:25.922926	1.810580E-1	3.002954E-3	2.596261E-3	1.890476E-3	1.324546E-2	6.653996E-4	3.755418E-3	1.188374E-3
10/19/2017  17:27:25.923926	4.379292E-1	4.243186E-3	2.930541E-4	3.409640E-3	1.677409E-3	1.703295E-3	1.901472E-3	1.227226E-3
10/19/2017  17:27:25.924926	5.293777E-1	1.558576E-3	2.371149E-3	4.315172E-3	1.669976E-2	3.152936E-3	2.728040E-3	2.905409E-3
10/19/2017  17:27:25.925926	5.838079E-1	7.854101E-3	5.543038E-4	1.185855E-2	1.389708E-3	2.124778E-3	2.712667E-3	4.667462E-3
10/19/2017  17:27:25.926926	4.743658E-3	3.070814E-3	4.723026E-4	4.872305E-3	3.576930E-3	1.506516E-3	4.365702E-3	5.194013E-3
10/19/2017  17:27:25.927926	3.949325E-1	2.157517E-3	1.118338E-2	1.604683E-3	7.187805E-3	9.805501E-4	1.042872E-3	3.065897E-3
10/19/2017  17:27:25.928926	1.784547E-1	2.807091E-3	3.247448E-3	5.678323E-3	1.346404E-3	8.095189E-3	7.506531E-4	6.220926E-3
10/19/2017  17:27:25.929926	2.052955E-1	2.285874E-4	5.826871E-4	1.051421E-2	9.590607E-3	1.309043E-3	5.981698E-3	4.671018E-3
10/19/2017  17:27:25.930926	2.271744E-1	4.573631E-3	1.164155E-2	1.640664E-3	2.249197E-3	7.971640E-3	4.084946E-3	8.009551E-3
10/19/2017  17:27:25.931926	2.224177E-1	5.334633E-3	6.824737E-3	6.049628E-3	2.058770E-3	7.815171E-3	6.116707E-3	1.412425E-3
10/19/2017  17:27:25.932926	6.401347E-2	8.587023E-4	1.801514E-3	8.985095E-3	8.353387E-3	5.639174E-3	4.563909E-3	3.052949E-3
10/19/2017  17:27:25.933926	2.931720E-1	7.468571E-3	2.845430E-3	6.588424E-3	6.023946E-3	1.294595E-2	1.088398E-3	2.413639E-3
10/19/2017  17:27:25.934926	1.553024E-1	5.423959E-3	6.033407E-3	6.695329E-3	1.109368E-2	1.816766E-3	1.346834E-3	2.017472E-4
10/19/2017  17:27:25.935926	1.946763E-1	6.273221E-4	7.113342E-3	2.206947E-3	1.280651E-3	1.595829E-3	7.769947E-3	4.432257E-3
10/19/2017  17:27:25.936926	7.212491E-1	2.821570E-3	1.413924E-2	8.344973E-5	8.024494E-3	3.542808E-3	1.119882E-3	7.520036E-3
10/19/2017  17:27:25.937926	2.952869E-1	6.448527E-3	3.045943E-3	4.711207E-4	7.865600E-4	1.683608E-3	5.318429E-3	3.679262E-3
								
10/19/2017  17:27:25.938926	3.766987E-1	2.030076E-3	1.314222E-2	8.887868E-4	2.779514E-3	7.521007E-3	5.932490E-3	2.981729E-3
10/19/2017  17:27:25.939926	6.041782E-1	8.052466E-3	3.959059E-3	1.187044E-3	2.398130E-3	2.716630E-3	4.718473E-3	2.372252E-3
10/19/2017  17:27:25.940926	4.195675E-1	9.424518E-4	9.642277E-3	1.382205E-3	4.809318E-4	7.394098E-3	5.733892E-3	3.151714E-4
10/19/2017  17:27:25.941926	4.407964E-1	7.401674E-3	2.495921E-3	1.012993E-2	3.785103E-4	7.901296E-3	2.558457E-4	4.379114E-3
10/19/2017  17:27:25.942926	9.629166E-2	1.229148E-3	6.288469E-4	5.634036E-3	2.967714E-4	1.007275E-2	6.710109E-3	1.555902E-3
10/19/2017  17:27:25.943926	3.742435E-2	3.401490E-3	7.199309E-3	2.711478E-3	1.274859E-2	8.282972E-3	4.556155E-3	1.226562E-2
10/19/2017  17:27:25.944926	9.748115E-2	8.539313E-3	5.134950E-3	4.557250E-5	4.445405E-3	1.726182E-3	5.927788E-4	2.147935E-3
10/19/2017  17:27:25.945926	3.860078E-1	2.683486E-3	5.237469E-3	8.515398E-3	5.859540E-3	1.258599E-3	6.662540E-3	3.105780E-3
10/19/2017  17:27:25.946926	1.509357E-1	1.375080E-4	4.805703E-4	7.391156E-3	1.552778E-4	8.732806E-4	8.403772E-4	4.616220E-3
10/19/2017  17:27:25.947926	5.987066E-1	4.322707E-3	2.537328E-4	7.404205E-3	3.932850E-3	1.597891E-3	9.590916E-4	1.188218E-3
10/19/2017  17:27:25.948926	4.826280E-1	1.297893E-3	6.553669E-3	3.900200E-3	1.694697E-4	1.138225E-3	3.283988E-3	1.333000E-3
10/19/2017  17:27:25.949926	4.874032E-1	7.449466E-3	2.130826E-3	5.401368E-3	1.733615E-3	5.733889E-3	3.993307E-3	9.266449E-4
10/19/2017  17:27:25.950926	4.210722E-1	7.311400E-4	9.828720E-3	4.075869E-3	1.025347E-2	6.104593E-3	8.679587E-3	4.901368E-3
10/19/2017  17:27:25.951926	3.965714E-1	2.012553E-3	7.213190E-3	2.914487E-3	1.844722E-2	6.882755E-3	8.820062E-3	5.358550E-3
10/19/2017  17:27:25.952926	7.317764E-1	3.925743E-3	3.653167E-3	6.227532E-3	2.492675E-3	7.304532E-3	2.263783E-3	1.402948E-2
10/19/2017  17:27:25.953926	3.079737E-2	2.982617E-3	2.693111E-3	3.740693E-4	4.538354E-3	2.946748E-3	1.516034E-3	1.226135E-2
10/19/2017  17:27:25.954926	5.530302E-1	2.169877E-3	2.711741E-4	9.934780E-3	1.529873E-3	2.517006E-3	3.065373E-3	6.872764E-3
10/19/2017  17:27:25.955926	3.107300E-1	6.818408E-4	4.091180E-3	1.128379E-2	4.989924E-3	2.263866E-3	2.442816E-3	9.584074E-3
10/19/2017  17:27:25.956926	1.585751E+0	3.759014E-3	1.023542E-2	1.534441E-2	1.416789E-3	1.248256E-3	1.278012E-2	1.845629E-3
10/19/2017  17:27:25.957926	8.211600E-1	4.604612E-3	7.111010E-3	8.310040E-3	1.700869E-3	4.730771E-3	4.508849E-3	1.363391E-3
10/19/2017  17:27:25.958926	1.947758E-1	2.803041E-3	6.313473E-3	1.395920E-2	8.377852E-3	4.835240E-4	6.031966E-3	5.271677E-3
10/19/2017  17:27:25.959926	5.342826E-1	3.476444E-3	1.533073E-3	8.689939E-4	4.185349E-3	9.147885E-3	4.777184E-3	5.121205E-3
10/19/2017  17:27:25.960926	4.080513E-1	1.354183E-2	1.573763E-3	1.450400E-3	3.151236E-3	9.245711E-3	3.697540E-3	3.748826E-3
10/19/2017  17:27:25.961926	3.729627E-1	1.486458E-3	3.787235E-3	5.595453E-3	2.068766E-3	1.880604E-3	5.853739E-3	4.254198E-4
10/19/2017  17:27:25.962926	5.672368E-1	2.918294E-3	9.268178E-4	8.250801E-3	7.522435E-4	3.324628E-3	9.147217E-3	8.476631E-3
10/19/2017  17:27:25.963926	3.784372E-1	7.024594E-3	1.014499E-3	1.047907E-3	7.071202E-3	8.754894E-3	4.449830E-3	3.701006E-3
10/19/2017  17:27:25.964926	3.752931E-1	1.388131E-2	3.217162E-3	3.421851E-3	4.549456E-4	6.259708E-3	1.296903E-3	2.095833E-3
10/19/2017  17:27:25.965926	3.690861E-1	1.270805E-3	3.539040E-4	6.932234E-4	1.302457E-2	1.096483E-2	7.542551E-3	6.208207E-3
10/19/2017  17:27:25.966926	3.733097E-1	1.384321E-3	6.032586E-3	7.751654E-3	5.098755E-4	7.774533E-3	5.210797E-3	6.207325E-3
10/19/2017  17:27:25.967926	4.480938E-1	5.771890E-3	2.626953E-3	2.626089E-3	1.502839E-2	7.848424E-3	7.533235E-3	6.207750E-3
10/19/2017  17:27:25.968926	4.197034E-1	4.387922E-3	8.771690E-3	5.578293E-3	2.619515E-3	1.485529E-3	5.608550E-3	7.075236E-3
10/19/2017  17:27:25.969926	2.581969E-1	5.425264E-3	2.001303E-3	9.138042E-3	2.269375E-3	1.007139E-3	3.433925E-4	1.420199E-2
10/19/2017  17:27:25.970926	2.482670E-1	1.653611E-2	2.982830E-3	3.801065E-3	1.950993E-3	3.716236E-3	1.109071E-2	7.442894E-4
								
10/19/2017  17:27:25.971926	2.301898E-1	1.298906E-2	6.451328E-3	4.366978E-3	5.989473E-3	6.015705E-3	3.195475E-3	9.341178E-3
10/19/2017  17:27:25.972926	2.446534E-1	7.830897E-3	4.307862E-3	5.752883E-3	6.471738E-3	4.117915E-3	7.003277E-3	6.111374E-7
10/19/2017  17:27:25.973926	1.641212E-1	3.797963E-3	5.384338E-3	4.330052E-3	6.473828E-3	8.245857E-3	7.597728E-3	2.418731E-3
10/19/2017  17:27:25.974926	3.369176E-1	3.581292E-3	1.578256E-3	3.086958E-3	6.124489E-3	4.930754E-4	1.219474E-3	1.053135E-2
10/19/2017  17:27:25.975926	1.223921E+0	2.239046E-3	8.937287E-4	1.281226E-2	2.470898E-4	1.861766E-3	1.274904E-3	1.402167E-3
10/19/2017  17:27:25.976926	5.970181E-1	1.016895E-3	2.480451E-3	4.613539E-3	3.802449E-3	5.615526E-3	8.592144E-4	5.656650E-3
10/19/2017  17:27:25.977926	1.131305E+0	9.821408E-3	9.497114E-3	1.704706E-2	2.149695E-3	7.081966E-3	3.794157E-3	6.332396E-3
10/19/2017  17:27:25.978926	3.258887E-1	4.925484E-3	4.427415E-4	6.495809E-4	4.216529E-3	8.191774E-4	8.140754E-3	1.073392E-2
10/19/2017  17:27:25.979926	1.994876E-1	3.167068E-3	3.972208E-4	9.016894E-3	3.378950E-3	4.921629E-3	1.384880E-2	1.231591E-3
10/19/2017  17:27:25.980926	2.753980E-1	8.878239E-3	2.519023E-3	5.940323E-3	4.730311E-4	9.616550E-3	1.174507E-3	1.193498E-3
10/19/2017  17:27:25.981926	7.358351E-2	2.521249E-3	1.257626E-2	1.607031E-2	5.960265E-3	4.518295E-3	7.661982E-3	1.012687E-3
10/19/2017  17:27:25.982926	7.579241E-1	1.986914E-3	8.861621E-3	3.321215E-3	5.199207E-4	3.722434E-3	3.373572E-3	1.798097E-3
10/19/2017  17:27:25.983926	6.554832E-1	5.825989E-3	6.648127E-3	1.314971E-2	1.168492E-2	1.169253E-2	4.446263E-3	5.932885E-3
10/19/2017  17:27:25.984926	2.988462E+0	8.964733E-3	4.752410E-3	1.502092E-3	8.374954E-3	1.801153E-3	7.949096E-3	2.268183E-5
10/19/2017  17:27:25.985926	7.832344E-1	4.106443E-3	1.172256E-3	1.415119E-2	1.241585E-3	9.732023E-3	7.887969E-3	4.226663E-3
10/19/2017  17:27:25.986926	1.245665E+0	6.069365E-3	7.575015E-3	3.141825E-3	8.340677E-3	1.843179E-3	7.646134E-3	1.558093E-3
10/19/2017  17:27:25.987926	1.176283E-1	4.493351E-3	5.371487E-3	1.487642E-3	2.390425E-4	2.836930E-3	9.874459E-3	7.831994E-3
10/19/2017  17:27:25.988926	1.558982E-1	5.494198E-3	7.842382E-3	4.169472E-3	6.370670E-3	1.733301E-3	1.931963E-3	7.674076E-3
10/19/2017  17:27:25.989926	2.670448E-1	6.981721E-3	1.238022E-2	1.645009E-3	3.760579E-4	8.222735E-4	1.900330E-2	6.992820E-4
10/19/2017  17:27:25.990926	7.608781E-1	5.181234E-4	5.985089E-3	6.296965E-3	9.551266E-4	4.232534E-3	1.983856E-4	4.408284E-3
10/19/2017  17:27:25.991926	4.569222E-1	4.192618E-3	4.848444E-3	2.925198E-3	5.721644E-3	1.239864E-3	4.778381E-3	3.614600E-3
10/19/2017  17:27:25.992926	2.109714E-1	3.101794E-3	5.975097E-3	2.552968E-3	8.944434E-3	1.200673E-2	1.721735E-3	5.068615E-3
10/19/2017  17:27:25.993926	1.431976E-1	2.186066E-3	2.198171E-3	4.345267E-3	6.431736E-3	2.219601E-4	1.640190E-3	7.053221E-3
10/19/2017  17:27:25.994926	3.141224E-1	5.048112E-3	8.003333E-3	1.191803E-2	8.533764E-3	9.044551E-3	4.932033E-3	3.990062E-3
10/19/2017  17:27:25.995926	8.163843E-1	5.091516E-3	3.139917E-3	3.825643E-3	3.378170E-3	2.039778E-3	2.920813E-3	3.150979E-3
10/19/2017  17:27:25.996926	9.826717E-1	1.372698E-3	5.695573E-4	4.410234E-3	5.373313E-3	7.427780E-3	5.196850E-3	1.320727E-2
10/19/2017  17:27:25.997926	1.038662E+0	7.849739E-3	7.605971E-3	2.101471E-2	4.447382E-3	3.363394E-3	1.086249E-2	6.084764E-3
10/19/2017  17:27:25.998926	3.333952E-1	9.873221E-4	8.061102E-3	6.854894E-3	1.009459E-2	2.350875E-3	5.838361E-3	8.942850E-3
10/19/2017  17:27:25.999926	2.569429E-1	1.425692E-2	5.946020E-4	9.329227E-3	9.364245E-3	4.966460E-3	6.687895E-3	1.965265E-3
10/19/2017  17:27:26.000926	1.842430E-1	3.536373E-3	6.789693E-3	6.331774E-3	4.623231E-3	2.945899E-3	2.463161E-3	7.480006E-3
10/19/2017  17:27:26.001926	1.200435E-2	9.789199E-3	1.144189E-4	6.984784E-3	8.054157E-3	4.195818E-3	7.173638E-3	9.622474E-3
10/19/2017  17:27:26.002926	1.082108E+0	1.213303E-3	6.898128E-3	3.359190E-3	6.243475E-4	1.582089E-3	1.322530E-3	1.047409E-4
10/19/2017  17:27:26.003926	7.275071E-1	4.078520E-4	7.339077E-3	5.836421E-3	1.763650E-2	5.684639E-3	9.206102E-4	1.147829E-2
								
10/19/2017  17:27:26.004926	1.467359E-1	2.326594E-4	3.481155E-3	8.293179E-4	3.447266E-3	4.059689E-3	5.872527E-3	1.906831E-3
10/19/2017  17:27:26.005926	5.778780E-1	2.885226E-3	1.834007E-3	3.500639E-3	5.589193E-3	5.222146E-4	3.180748E-4	3.568986E-3
10/19/2017  17:27:26.006926	3.422441E-2	4.700496E-3	7.390708E-3	1.612769E-2	1.128945E-2	7.562455E-5	4.797663E-3	1.051324E-2
10/19/2017  17:27:26.007926	3.077485E-1	5.813589E-3	1.426480E-3	2.898376E-3	2.380182E-3	8.921042E-3	7.272818E-3	7.208313E-3
10/19/2017  17:27:26.008926	4.965164E-1	6.603723E-3	5.564192E-3	1.109922E-2	3.421775E-3	1.018130E-4	2.647772E-3	8.502376E-3
10/19/2017  17:27:26.009926	3.045507E-1	4.448297E-3	6.829632E-3	7.709117E-3	4.689942E-3	4.433690E-3	3.020492E-3	6.430241E-3
10/19/2017  17:27:26.010926	8.063865E-1	1.028187E-2	1.840017E-3	5.924652E-3	3.872812E-3	5.179274E-3	9.181530E-3	2.587163E-3
10/19/2017  17:27:26.011926	7.009496E-1	5.475357E-3	5.850502E-3	2.550832E-3	7.465493E-3	9.664497E-3	4.601704E-3	1.775488E-3
10/19/2017  17:27:26.012926	3.830341E-2	7.174611E-3	2.332661E-3	4.351385E-3	3.225259E-3	1.345590E-2	9.687502E-3	2.619210E-3
10/19/2017  17:27:26.013926	7.186713E-1	3.477908E-3	1.650577E-3	3.181422E-3	8.647341E-3	6.044309E-3	2.250193E-3	1.423030E-2
10/19/2017  17:27:26.014926	3.924311E-1	4.525564E-3	1.071356E-3	4.129492E-3	4.831370E-3	6.898969E-3	5.411230E-3	8.484726E-3
10/19/2017  17:27:26.015926	4.302694E-3	1.406373E-3	7.297144E-3	2.773056E-4	3.496036E-3	2.898207E-3	2.088975E-3	6.838164E-3
10/19/2017  17:27:26.016926	4.674694E-1	1.209725E-2	8.014835E-3	1.118451E-2	4.519325E-3	1.186437E-4	3.942137E-3	1.861245E-3
10/19/2017  17:27:26.017926	5.086957E-1	1.950355E-3	1.437372E-2	3.813175E-3	5.807288E-3	6.612170E-3	1.364798E-3	1.563662E-3
10/19/2017  17:27:26.018926	3.285406E-1	5.293810E-3	9.809160E-3	4.691113E-4	3.068103E-5	4.130859E-3	5.115619E-3	5.586479E-3
10/19/2017  17:27:26.019926	3.403916E-2	3.407671E-3	1.267757E-3	1.993681E-3	8.430386E-3	1.168559E-2	5.386091E-3	6.042242E-3
10/19/2017  17:27:26.020926	2.117152E-1	1.607213E-2	2.684964E-3	3.707698E-3	5.384215E-3	1.453238E-3	4.090130E-3	1.722498E-3
10/19/2017  17:27:26.021926	6.094178E-1	7.505379E-4	2.926661E-3	6.007546E-3	2.170466E-3	1.718722E-3	5.127425E-3	1.540588E-3
10/19/2017  17:27:26.022926	8.076578E-1	2.110076E-2	2.543586E-3	1.896787E-3	3.131113E-3	6.139733E-3	3.012483E-3	8.214377E-3
10/19/2017  17:27:26.023926	3.454927E-1	7.356311E-3	8.648880E-3	9.625316E-4	1.153164E-2	8.184813E-3	6.603700E-3	4.068292E-3
10/19/2017  17:27:26.024926	1.945722E+0	8.164350E-3	1.843717E-3	4.509120E-3	2.191790E-3	5.671347E-3	1.895032E-3	5.543162E-3
10/19/2017  17:27:26.025926	8.951979E-1	6.266181E-3	3.308590E-3	1.049783E-2	3.204562E-3	2.491844E-3	3.614014E-3	1.375297E-3
10/19/2017  17:27:26.026926	1.501965E+0	3.180112E-4	6.629910E-3	7.920611E-3	6.971395E-3	4.446046E-3	4.675778E-3	8.221567E-3
10/19/2017  17:27:26.027926	7.521940E-1	6.128610E-3	4.880407E-3	7.236190E-3	7.157736E-4	9.992007E-3	8.809392E-4	6.164000E-3
10/19/2017  17:27:26.028926	6.880606E-1	6.149892E-3	9.546194E-3	5.120981E-4	5.994716E-3	7.044490E-3	2.380171E-3	2.061546E-3
10/19/2017  17:27:26.029926	5.412803E-1	7.117259E-3	1.082996E-2	6.552863E-3	8.922101E-3	2.368629E-4	5.333351E-3	3.566558E-3
10/19/2017  17:27:26.030926	7.130150E-2	3.440628E-3	1.041149E-2	1.594209E-3	1.059024E-2	4.739251E-3	1.069059E-2	4.165156E-3
10/19/2017  17:27:26.031926	4.367974E-1	4.979706E-3	5.866768E-3	8.876076E-4	6.055233E-3	6.003127E-3	1.031579E-3	9.869360E-3
10/19/2017  17:27:26.032926	6.531062E-1	2.765854E-3	1.949537E-3	8.326530E-3	4.843626E-3	2.356682E-3	1.358702E-3	2.094647E-3
10/19/2017  17:27:26.033926	8.781051E-1	3.894884E-3	5.507057E-3	2.695502E-3	5.955783E-3	2.515853E-3	9.935756E-3	4.184552E-3
10/19/2017  17:27:26.034926	6.817101E-1	1.942758E-4	2.304851E-3	1.870958E-3	2.150357E-3	5.887481E-3	3.976989E-3	5.532942E-3
10/19/2017  17:27:26.035926	3.665479E-1	4.664302E-3	8.391403E-4	2.257469E-2	2.943879E-3	3.686759E-3	7.363034E-3	1.947817E-3
10/19/2017  17:27:26.036926	1.015343E+0	4.984834E-3	5.251329E-3	8.428458E-3	2.166044E-3	4.606541E-3	1.324450E-3	2.882769E-3
								
10/19/2017  17:27:26.037926	2.436638E-1	1.205823E-2	4.368142E-4	6.676304E-3	1.407255E-3	1.474744E-2	7.530720E-3	2.470347E-4
10/19/2017  17:27:26.038926	1.417003E+0	4.351091E-3	1.886090E-4	5.154943E-3	7.877274E-3	2.348814E-3	3.016148E-3	3.354203E-4
10/19/2017  17:27:26.039926	1.022992E+0	3.590729E-3	2.163320E-3	6.005314E-3	5.550849E-3	8.076501E-3	2.560404E-3	6.862338E-3
10/19/2017  17:27:26.040926	4.269539E-2	5.926181E-3	8.076495E-3	2.019534E-3	5.057856E-3	1.141700E-3	4.332545E-3	4.404199E-4
10/19/2017  17:27:26.041926	1.630877E-1	4.808725E-3	5.337194E-3	1.197329E-3	5.999372E-3	1.285944E-3	1.405816E-2	2.075596E-3
10/19/2017  17:27:26.042926	2.070828E-1	5.819895E-4	2.125865E-2	8.118502E-3	4.412629E-3	1.431348E-2	3.341879E-3	5.979329E-3
10/19/2017  17:27:26.043926	1.533345E-1	1.086575E-2	1.147333E-2	1.505544E-3	7.378447E-3	3.605724E-3	2.007825E-2	2.052592E-3
10/19/2017  17:27:26.044926	2.063986E-1	3.887449E-3	2.376289E-2	9.887716E-4	8.160611E-3	1.726328E-2	9.964051E-4	5.189864E-3
10/19/2017  17:27:26.045926	1.206301E-1	1.658145E-2	3.061286E-3	3.762194E-3	4.731692E-4	3.449175E-3	1.067892E-2	1.528909E-3
10/19/2017  17:27:26.046926	4.378986E-1	3.049257E-3	9.350792E-3	1.623077E-3	4.493276E-3	2.089274E-4	7.836064E-3	1.195207E-3
10/19/2017  17:27:26.047926	9.113765E-1	1.270208E-2	2.703826E-3	1.101861E-3	5.822103E-3	7.188615E-3	1.053535E-3	5.280113E-3
10/19/2017  17:27:26.048926	2.627599E-1	2.574949E-3	4.337440E-3	6.663214E-4	4.307980E-3	1.114197E-3	3.116201E-3	6.486628E-4
10/19/2017  17:27:26.049926	8.215950E-1	1.353917E-2	3.782646E-3	6.172430E-3	8.086204E-3	3.304650E-3	1.996159E-3	5.734576E-4
10/19/2017  17:27:26.050926	7.758964E-1	1.436632E-3	5.171159E-3	4.334349E-3	7.992382E-3	1.526109E-2	9.049124E-4	4.935480E-4
10/19/2017  17:27:26.051926	5.345971E-1	7.322807E-3	1.631156E-3	6.307314E-4	1.410494E-2	4.165436E-3	2.972347E-3	8.222391E-3
10/19/2017  17:27:26.052926	8.238969E-1	4.007275E-3	5.309094E-3	8.578338E-3	9.098277E-4	4.075867E-3	2.179387E-3	3.163411E-3
10/19/2017  17:27:26.053926	1.206292E+0	7.704168E-3	7.465345E-4	2.897650E-4	7.364412E-3	7.728879E-3	1.510180E-3	1.124228E-2
10/19/2017  17:27:26.054926	5.655306E-1	1.393971E-3	5.092909E-3	2.341481E-3	7.341872E-3	2.904916E-3	9.835417E-3	7.295501E-4
10/19/2017  17:27:26.055926	1.302995E-1	1.098960E-3	5.837266E-3	6.139683E-4	1.560523E-2	8.234901E-3	2.436477E-3	1.365981E-2
10/19/2017  17:27:26.056926	5.327030E-2	5.650752E-3	6.867915E-3	4.882286E-3	1.170734E-2	8.410699E-4	9.515067E-3	5.721499E-3
10/19/2017  17:27:26.057926	2.607566E-1	5.387193E-4	4.915808E-3	5.233307E-3	2.810472E-3	2.445479E-3	6.920423E-3	4.323239E-3
10/19/2017  17:27:26.058926	6.085320E-2	9.294575E-3	1.045769E-3	2.842645E-3	5.007155E-3	1.341687E-2	1.747893E-3	9.592419E-3
10/19/2017  17:27:26.059926	5.945288E-1	4.790986E-5	5.310126E-3	2.272382E-3	2.233686E-3	8.345907E-4	5.772624E-3	2.196573E-3
10/19/2017  17:27:26.060926	6.258413E-1	1.729816E-4	4.813992E-3	1.529252E-3	3.532013E-3	1.919718E-3	1.938558E-3	1.584288E-4
10/19/2017  17:27:26.061926	3.484239E-1	6.838364E-3	3.241435E-3	9.146345E-4	5.414234E-3	4.798203E-4	3.078972E-3	1.978691E-2
10/19/2017  17:27:26.062926	1.859043E-1	1.601864E-3	2.422827E-3	1.686613E-2	2.232408E-3	8.627231E-3	8.559898E-5	5.608149E-3
10/19/2017  17:27:26.063926	5.963145E-1	5.430757E-3	4.759256E-3	1.001035E-2	2.025430E-3	1.838038E-3	8.607850E-5	8.548753E-3
10/19/2017  17:27:26.064926	5.777058E-1	2.886399E-3	3.248139E-3	1.813554E-2	3.960130E-3	5.315007E-3	4.399035E-3	5.246360E-4
10/19/2017  17:27:26.065926	1.691551E-2	2.306153E-3	2.390343E-3	4.954492E-3	5.170424E-3	4.872678E-3	3.494758E-3	5.810762E-4
10/19/2017  17:27:26.066926	1.269973E+0	2.504086E-3	5.038154E-4	6.284774E-3	7.086311E-4	7.460169E-3	1.759511E-3	2.775838E-3
10/19/2017  17:27:26.067926	1.933694E-1	9.288761E-3	4.735879E-3	5.065583E-4	3.711583E-3	8.987804E-4	3.295720E-3	7.283580E-5
10/19/2017  17:27:26.068926	4.737852E-1	8.530334E-3	3.247043E-3	2.822971E-3	2.352817E-3	4.452351E-4	1.303026E-2	2.110202E-3
10/19/2017  17:27:26.069926	8.414956E-1	1.447426E-2	8.788461E-3	6.427504E-3	5.533978E-3	8.544332E-3	4.504607E-4	3.464762E-3
								
10/19/2017  17:27:26.070926	1.348636E+0	1.219881E-2	4.541041E-3	1.895371E-4	7.655870E-3	2.654148E-3	4.343153E-3	6.442564E-5
10/19/2017  17:27:26.071926	6.353157E-1	7.018907E-4	7.454471E-3	4.979917E-3	1.471652E-2	6.301081E-3	5.326353E-3	4.808252E-4
10/19/2017  17:27:26.072926	3.355988E-2	5.395873E-3	1.024853E-2	1.254519E-2	4.012406E-3	4.325346E-3	5.542356E-3	7.271176E-3
10/19/2017  17:27:26.073926	1.047062E+0	6.409853E-3	9.853831E-3	2.280729E-3	6.048621E-3	5.275283E-4	5.398202E-3	7.529979E-3
10/19/2017  17:27:26.074926	1.677897E+0	3.930859E-3	2.057777E-3	3.101786E-3	2.128028E-3	6.577710E-3	8.767661E-3	1.275058E-3
10/19/2017  17:27:26.075926	3.588495E-1	3.927085E-4	4.094662E-3	4.031180E-4	2.895467E-3	1.356664E-2	6.502224E-3	1.106944E-3
10/19/2017  17:27:26.076926	3.226710E+0	2.192226E-3	3.235659E-3	1.514325E-3	4.446405E-3	6.792518E-4	4.565708E-3	3.116788E-3
10/19/2017  17:27:26.077926	8.555981E-1	4.665054E-3	4.634563E-3	1.018418E-2	3.041325E-3	2.101182E-3	7.858823E-3	8.752611E-3
10/19/2017  17:27:26.078926	1.693190E+0	7.207342E-3	1.189596E-2	9.911994E-3	1.877625E-3	3.518300E-3	5.681842E-3	9.187244E-3
10/19/2017  17:27:26.079926	3.410959E-1	8.609471E-3	7.227463E-3	2.290926E-3	7.724946E-3	9.632187E-3	4.632323E-4	8.739771E-3
10/19/2017  17:27:26.080926	1.085321E+0	6.697979E-3	5.608899E-3	7.682046E-3	1.314105E-3	1.473221E-3	9.194463E-3	4.964700E-3
10/19/2017  17:27:26.081926	7.779829E-1	1.446480E-3	6.382724E-3	3.759789E-3	7.448813E-3	1.420562E-3	4.262006E-3	1.692530E-3
10/19/2017  17:27:26.082926	3.489983E-1	2.924191E-3	1.979744E-3	5.111437E-3	1.149545E-2	5.165762E-3	3.838861E-3	3.603582E-3
10/19/2017  17:27:26.083926	3.488430E-2	4.791398E-3	3.587736E-3	3.698177E-3	3.499649E-3	1.161648E-3	9.061738E-4	5.139259E-4
10/19/2017  17:27:26.084926	1.661168E-1	5.816294E-3	6.725281E-3	3.393323E-4	1.639096E-2	1.396209E-3	9.442869E-4	4.329300E-4
10/19/2017  17:27:26.085926	5.917149E-1	2.363741E-3	2.157782E-3	6.524584E-3	9.914222E-4	3.705332E-3	9.591671E-4	6.113954E-3
10/19/2017  17:27:26.086926	6.446687E-1	2.621248E-3	1.290100E-3	2.321549E-3	4.585142E-4	7.392008E-3	3.111308E-3	1.105790E-2
10/19/2017  17:27:26.087926	8.533963E-2	2.572992E-3	1.673551E-2	1.080755E-2	6.521084E-3	7.560076E-3	6.250301E-3	2.979608E-3
10/19/2017  17:27:26.088926	8.210747E-1	6.225343E-3	7.677660E-3	4.070440E-3	2.714883E-4	9.956129E-3	2.704383E-4	6.290714E-6
10/19/2017  17:27:26.089926	9.218323E-1	5.154893E-5	5.701528E-3	1.468516E-2	7.367879E-3	9.176238E-3	9.309865E-3	2.132305E-3
10/19/2017  17:27:26.090926	9.046911E-1	6.726180E-3	2.147685E-3	6.584184E-3	1.001470E-2	6.939739E-3	4.624361E-3	7.883671E-3
10/19/2017  17:27:26.091926	7.565556E-1	1.743721E-3	1.667782E-3	1.034402E-2	6.442648E-4	1.177686E-2	5.345604E-3	3.477319E-3
10/19/2017  17:27:26.092926	6.812483E-1	8.441311E-4	5.574926E-3	8.201225E-3	3.990606E-3	6.072104E-3	3.042767E-3	9.379828E-3
10/19/2017  17:27:26.093926	2.083013E-2	2.640638E-3	5.119636E-4	4.725549E-3	1.492994E-3	1.632611E-3	1.807204E-3	2.623031E-4
10/19/2017  17:27:26.094926	3.390484E-1	8.092345E-3	1.352564E-2	5.639693E-3	1.131603E-3	4.458894E-4	5.610302E-3	4.161697E-3
10/19/2017  17:27:26.095926	3.112882E-2	1.216003E-2	1.495890E-3	1.066422E-4	2.984158E-3	9.145746E-3	6.536629E-3	2.836802E-3
10/19/2017  17:27:26.096926	9.962468E-2	8.971545E-3	7.964563E-3	4.400916E-3	8.793643E-3	1.569810E-2	2.000519E-3	4.232980E-4
10/19/2017  17:27:26.097926	1.022710E-1	8.832678E-3	1.227879E-2	9.523048E-4	3.866500E-3	1.876551E-3	1.413009E-3	6.161483E-4
10/19/2017  17:27:26.098926	4.552122E-1	3.512131E-4	6.161132E-3	4.882083E-3	6.399793E-3	1.014210E-2	6.023105E-3	7.224425E-3
10/19/2017  17:27:26.099926	8.647665E-2	1.655494E-3	2.909210E-3	9.608254E-3	2.726856E-3	5.076071E-4	6.953552E-3	3.021765E-3
10/19/2017  17:27:26.100926	2.929869E-2	1.328200E-3	1.801808E-2	2.625172E-3	4.314402E-3	4.306783E-3	7.322323E-3	4.477057E-3
10/19/2017  17:27:26.101926	2.570690E-1	1.424478E-2	2.183622E-3	7.084504E-3	5.274579E-3	3.994894E-3	7.651954E-4	1.051542E-3
10/19/2017  17:27:26.102926	5.732299E-1	1.309407E-3	5.011206E-3	1.004510E-2	1.390961E-3	3.361504E-3	1.865863E-3	1.459017E-3
								
10/19/2017  17:27:26.103926	4.470436E-1	1.564759E-2	9.969684E-3	9.547380E-4	1.230746E-2	9.261170E-3	1.549126E-3	1.122529E-3
10/19/2017  17:27:26.104926	2.495404E-1	9.354808E-3	2.259710E-3	5.616503E-3	4.292509E-3	1.065330E-2	3.434055E-3	1.381291E-3
10/19/2017  17:27:26.105926	1.007498E-1	1.622265E-2	3.447115E-3	2.899219E-3	6.042407E-3	2.905471E-3	1.822749E-3	7.430166E-3
10/19/2017  17:27:26.106926	4.169851E-1	5.349638E-3	3.130121E-3	2.908703E-4	2.425950E-3	5.005086E-3	1.194347E-3	1.534554E-3
10/19/2017  17:27:26.107926	9.690766E-1	1.237437E-2	7.116329E-3	2.748665E-3	2.677126E-4	6.190738E-3	2.823177E-3	7.960050E-3
10/19/2017  17:27:26.108926	5.967125E-1	4.771971E-3	1.183596E-2	4.226080E-3	2.149778E-3	2.980344E-4	4.807090E-4	5.767637E-3
10/19/2017  17:27:26.109926	3.403223E-1	6.175879E-3	1.707383E-3	3.933983E-3	1.245936E-2	3.580646E-4	2.875611E-3	1.758604E-3
10/19/2017  17:27:26.110926	1.101620E-1	1.680878E-3	5.720694E-3	5.335309E-3	8.836123E-3	3.816395E-4	6.657897E-3	1.233195E-3
10/19/2017  17:27:26.111926	3.439598E-1	5.059791E-3	4.379136E-3	9.014343E-3	1.080805E-2	3.755123E-4	4.571727E-4	9.833120E-3
10/19/2017  17:27:26.112926	8.027447E-1	7.262104E-4	5.404011E-3	5.257155E-4	1.264748E-3	1.812718E-3	4.031048E-3	6.942647E-3
10/19/2017  17:27:26.113926	2.521609E-1	2.500999E-3	7.051700E-3	9.238687E-4	7.771312E-3	3.165039E-3	5.998540E-4	2.350419E-3
10/19/2017  17:27:26.114926	8.041252E-1	4.782521E-3	9.199919E-3	7.440045E-3	8.647517E-4	1.182710E-4	4.560014E-3	1.120236E-3
10/19/2017  17:27:26.115926	8.465998E-1	8.423194E-3	7.006358E-3	6.369447E-3	5.484431E-4	4.377243E-3	1.455849E-3	9.321223E-3
10/19/2017  17:27:26.116926	5.853263E-1	2.055404E-3	9.775143E-3	3.370713E-3	4.616479E-3	2.896211E-3	5.755013E-3	7.416256E-3
10/19/2017  17:27:26.117926	8.850770E-2	4.563118E-4	5.483755E-4	6.194082E-4	8.244577E-4	9.142756E-3	4.290772E-3	6.265819E-3
10/19/2017  17:27:26.118926	3.947341E-1	8.075507E-5	2.523194E-3	1.215828E-2	4.137761E-3	8.791415E-3	8.801054E-4	8.971851E-4
10/19/2017  17:27:26.119926	2.758928E-1	8.831859E-3	5.985888E-3	6.973127E-3	1.053984E-3	2.660987E-3	3.787358E-3	3.516763E-3
10/19/2017  17:27:26.120926	6.977065E-2	2.439885E-3	9.094743E-3	5.064151E-3	7.453495E-3	2.166676E-3	2.666947E-3	7.441560E-3
10/19/2017  17:27:26.121926	4.210981E-1	1.840313E-3	8.752572E-3	9.892632E-3	3.058768E-3	8.193913E-3	3.890109E-3	9.943666E-3
10/19/2017  17:27:26.122926	8.432570E-2	7.285493E-3	5.568387E-4	4.191950E-3	1.888411E-3	3.506577E-3	2.566890E-4	6.950407E-3
10/19/2017  17:27:26.123926	1.488978E-1	2.690837E-3	9.435276E-3	2.383142E-3	5.574139E-3	8.561709E-3	4.558658E-3	2.060120E-3
10/19/2017  17:27:26.124926	1.239055E-1	9.436839E-3	4.617767E-3	4.975799E-3	6.399907E-3	7.691580E-3	2.950382E-3	6.369723E-3
10/19/2017  17:27:26.125926	5.156474E-1	4.834986E-3	7.406975E-3	8.892372E-3	2.384651E-3	2.467642E-3	4.743446E-3	2.765425E-3
10/19/2017  17:27:26.126926	5.810925E-1	2.995382E-3	1.039814E-2	4.915885E-3	4.950606E-3	1.198682E-2	7.083722E-4	4.229570E-3
10/19/2017  17:27:26.127926	3.306450E-1	2.001508E-3	7.654254E-3	6.747564E-3	7.842971E-3	8.942433E-3	2.436822E-3	1.770443E-3
10/19/2017  17:27:26.128926	1.004951E+0	5.311646E-3	1.001465E-3	3.961426E-3	3.442670E-3	6.605202E-3	5.074341E-3	4.726272E-3
10/19/2017  17:27:26.129926	3.760418E-1	4.347880E-4	8.179733E-3	9.126224E-3	7.119673E-3	8.860645E-3	8.098580E-3	8.148107E-3
10/19/2017  17:27:26.130926	8.496702E-1	2.202786E-4	1.468177E-3	9.580176E-3	8.010250E-4	2.908087E-3	9.064633E-4	8.470676E-3
10/19/2017  17:27:26.131926	4.073092E-1	6.436207E-3	1.281154E-3	5.199512E-3	1.622885E-3	6.979016E-3	9.150320E-4	6.767982E-3
10/19/2017  17:27:26.132926	2.157833E-1	4.172556E-3	3.212358E-3	4.652621E-3	1.194782E-2	9.836033E-4	5.232622E-3	4.181164E-3
10/19/2017  17:27:26.133926	2.616360E-1	5.144842E-3	2.022259E-3	5.031927E-3	2.833867E-3	5.525202E-3	3.811844E-3	1.048200E-3
10/19/2017  17:27:26.134926	2.786652E-1	2.031125E-2	3.539630E-3	1.008798E-2	1.988825E-2	5.173420E-3	8.166633E-3	4.229641E-4
10/19/2017  17:27:26.135926	1.112839E-1	3.319021E-3	6.339526E-3	1.098956E-3	1.197664E-3	4.026057E-3	8.632838E-4	2.233921E-3
								
10/19/2017  17:27:26.136926	2.572659E-1	2.964833E-3	2.088316E-4	9.703478E-3	1.636181E-2	5.175393E-3	1.270949E-3	1.911265E-3
10/19/2017  17:27:26.137926	3.326161E-1	2.615772E-3	6.574464E-3	1.848616E-3	5.660542E-4	1.428377E-3	8.076535E-3	5.502925E-4
10/19/2017  17:27:26.138926	2.858075E-1	8.750944E-3	6.511507E-3	3.639598E-3	2.113465E-3	7.846594E-3	5.828610E-3	8.758394E-3
10/19/2017  17:27:26.139926	2.405188E-1	6.297821E-3	1.332406E-2	1.559273E-2	9.895090E-3	5.553553E-3	4.694204E-3	3.437849E-3
10/19/2017  17:27:26.140926	2.813840E-1	2.259320E-3	5.439092E-3	4.610712E-3	7.296293E-3	4.990775E-3	9.906100E-3	6.141890E-4
10/19/2017  17:27:26.141926	2.258268E-1	4.036496E-3	6.963983E-3	6.942391E-3	3.573455E-3	1.565570E-3	1.922670E-3	1.436795E-2
10/19/2017  17:27:26.142926	7.197445E-1	1.319673E-3	3.867584E-3	6.702181E-3	2.599103E-3	9.816202E-4	3.960542E-4	1.501724E-2
10/19/2017  17:27:26.143926	3.124021E-1	1.380095E-3	3.617102E-3	2.274106E-2	6.111460E-3	2.781939E-3	4.465828E-3	3.380849E-4
10/19/2017  17:27:26.144926	1.203056E-1	5.352499E-3	1.894913E-4	1.340743E-3	6.798699E-3	4.679709E-3	1.320736E-3	2.007008E-2
10/19/2017  17:27:26.145926	3.704971E-2	3.447816E-3	2.307282E-3	7.528651E-4	6.476357E-4	3.352129E-3	7.647000E-3	3.323182E-3
10/19/2017  17:27:26.146926	1.779940E-1	2.919139E-4	1.265331E-2	4.310351E-3	4.839360E-3	2.102334E-3	3.251892E-3	4.922186E-3
10/19/2017  17:27:26.147926	2.040446E-2	1.166553E-2	4.386629E-3	4.422466E-3	3.290173E-3	4.827831E-3	1.527324E-2	8.007138E-3
10/19/2017  17:27:26.148926	1.157180E-1	1.287942E-2	1.046101E-2	1.355109E-4	4.150421E-3	7.396657E-3	4.854254E-3	1.198141E-3
10/19/2017  17:27:26.149926	4.215219E-2	6.281031E-3	7.758385E-3	5.701433E-3	1.062157E-2	6.272957E-3	2.404771E-4	2.665469E-3
10/19/2017  17:27:26.150926	2.162338E+0	3.946284E-4	7.493628E-3	7.410029E-3	7.830756E-3	7.267345E-3	4.781466E-3	7.255610E-3
10/19/2017  17:27:26.151926	1.917779E-1	2.634568E-3	5.165406E-3	6.239051E-3	3.188100E-3	5.539373E-3	6.059435E-3	9.887280E-4
10/19/2017  17:27:26.152926	8.043132E-1	4.492372E-3	7.581559E-3	5.618508E-3	1.747128E-2	4.571611E-3	1.912629E-3	1.799638E-3
10/19/2017  17:27:26.153926	3.402372E-1	3.553669E-3	3.485044E-3	8.623141E-4	7.705500E-3	2.986818E-3	1.073639E-3	4.864762E-3
10/19/2017  17:27:26.154926	1.874509E-1	4.889627E-3	9.022693E-3	1.133285E-2	1.039562E-2	5.988321E-3	5.340597E-3	1.004057E-2
10/19/2017  17:27:26.155926	3.960020E-1	9.476177E-3	3.816351E-4	2.381408E-3	1.062846E-3	2.977467E-3	3.846086E-3	5.245222E-3
10/19/2017  17:27:26.156926	1.846386E-1	5.874313E-5	2.855259E-3	4.510027E-3	2.950321E-3	7.204966E-3	4.083530E-4	2.753137E-3
10/19/2017  17:27:26.157926	9.016737E-2	6.958886E-3	2.379997E-3	1.541858E-3	6.652814E-3	1.331242E-3	6.439576E-3	2.413640E-3
10/19/2017  17:27:26.158926	1.009755E-1	5.635726E-3	2.366137E-3	1.507393E-3	1.883258E-3	9.404020E-3	3.136679E-4	4.460050E-4
10/19/2017  17:27:26.159926	3.784327E-1	1.147936E-2	3.489317E-3	1.005930E-2	1.444212E-2	9.250300E-3	6.254149E-3	4.640201E-3
10/19/2017  17:27:26.160926	5.777319E-1	3.858499E-3	2.211284E-4	3.708936E-3	5.333521E-3	5.037533E-3	2.036136E-3	1.200976E-3
10/19/2017  17:27:26.161926	5.566304E-1	1.262088E-2	5.090505E-3	3.792124E-3	2.260860E-3	1.793199E-3	3.300622E-3	3.214343E-3
10/19/2017  17:27:26.162926	4.509653E-1	1.990230E-3	4.082003E-3	1.113670E-2	3.238648E-3	1.538052E-3	2.724589E-3	1.946622E-3
10/19/2017  17:27:26.163926	3.129693E-1	1.643897E-3	5.347612E-3	7.926894E-3	7.094220E-3	8.787460E-4	2.092930E-3	9.879676E-3
10/19/2017  17:27:26.164926	4.860612E-2	7.805100E-3	2.626282E-3	8.416207E-3	5.576966E-3	6.049176E-3	3.269654E-3	8.779814E-6
10/19/2017  17:27:26.165926	5.916018E-2	3.236610E-3	3.840358E-4	2.005991E-4	1.154130E-2	6.422399E-3	3.915097E-3	1.366291E-2
10/19/2017  17:27:26.166926	4.165307E-1	2.661589E-4	3.703324E-4	6.608529E-3	1.708110E-3	4.188255E-3	6.658003E-3	1.312622E-3
10/19/2017  17:27:26.167926	4.667788E-1	1.870286E-3	6.816134E-3	1.723510E-3	3.184037E-3	1.525698E-4	3.242832E-3	7.639840E-3
10/19/2017  17:27:26.168926	1.113903E-1	3.171292E-3	1.836560E-3	9.782053E-3	2.599169E-4	1.148428E-2	1.475149E-3	7.246073E-3
								
10/19/2017  17:27:26.169926	3.812515E-2	1.098846E-2	1.538282E-3	8.674976E-3	7.095917E-3	4.294361E-3	4.439672E-4	2.050194E-3
10/19/2017  17:27:26.170926	4.813441E-2	9.803818E-3	1.282730E-3	1.297615E-2	5.227518E-3	1.399272E-2	4.684548E-3	1.086658E-2
10/19/2017  17:27:26.171926	1.126621E-1	1.139005E-2	3.254216E-3	1.475900E-2	7.175248E-3	5.521746E-4	6.046583E-3	8.113339E-3
10/19/2017  17:27:26.172926	1.638093E-1	5.287012E-3	2.021143E-3	8.116346E-3	4.952278E-3	1.140434E-2	2.963122E-4	1.432177E-3
10/19/2017  17:27:26.173926	9.911000E-2	8.460768E-3	9.964644E-4	5.741205E-3	5.561822E-3	1.381687E-4	2.621134E-3	1.317418E-3
10/19/2017  17:27:26.174926	2.296838E-1	3.896934E-3	4.159094E-3	9.043691E-3	2.089920E-3	5.025793E-3	2.014986E-3	5.429795E-3
10/19/2017  17:27:26.175926	8.593160E-2	4.200699E-4	9.887446E-3	1.915028E-3	4.893343E-4	2.765327E-4	1.472831E-3	2.629279E-3
10/19/2017  17:27:26.176926	5.806091E-2	4.283515E-3	7.097211E-3	9.691263E-3	2.016531E-3	2.429005E-3	1.393789E-2	3.406323E-4
10/19/2017  17:27:26.177926	3.188940E-1	1.013170E-3	1.469265E-2	3.284838E-4	5.901507E-3	8.655284E-3	3.678667E-3	1.830225E-3
10/19/2017  17:27:26.178926	3.516297E-1	1.156677E-2	3.793661E-3	3.281529E-3	2.398187E-3	7.551381E-3	3.332341E-3	1.036377E-3
10/19/2017  17:27:26.179926	7.929217E-1	2.974632E-3	6.424278E-3	1.180693E-2	8.279351E-3	1.028710E-2	3.468329E-3	3.390936E-3
10/19/2017  17:27:26.180926	6.846258E-1	4.717593E-3	2.721023E-3	1.096004E-2	5.182355E-3	7.477455E-3	4.819109E-3	8.725655E-3
10/19/2017  17:27:26.181926	2.193232E+0	7.943336E-3	6.422686E-3	9.834606E-3	8.158926E-3	3.552969E-3	1.064326E-2	1.908456E-4
10/19/2017  17:27:26.182926	3.301769E-1	7.364484E-3	4.467110E-3	1.308954E-2	9.063973E-4	4.896747E-3	5.764916E-3	1.147717E-4
10/19/2017  17:27:26.183926	4.922328E-1	2.937549E-3	3.656265E-3	1.192571E-3	1.230218E-3	1.429849E-2	2.000983E-3	8.676290E-3
10/19/2017  17:27:26.184926	2.719346E-1	1.470095E-2	2.893340E-3	1.237570E-2	1.030503E-2	3.349671E-3	7.277930E-3	2.858875E-3
10/19/2017  17:27:26.185926	5.551255E-1	1.210388E-2	6.552969E-3	4.335437E-3	5.171533E-3	1.810082E-2	4.986575E-3	2.445397E-3
10/19/2017  17:27:26.186926	3.450437E-1	2.444283E-2	2.410585E-3	1.107693E-3	3.384531E-3	4.139772E-3	5.556833E-3	6.389761E-3
10/19/2017  17:27:26.187926	7.452531E-2	4.495991E-3	5.018802E-3	1.504070E-3	8.912841E-3	1.841022E-3	4.296103E-3	3.211081E-4
10/19/2017  17:27:26.188926	9.203726E-2	3.591783E-3	3.670464E-3	3.312981E-3	2.088655E-3	3.969102E-3	3.204639E-3	2.417223E-3
10/19/2017  17:27:26.189926	2.359473E-1	4.971716E-3	2.524252E-3	1.292141E-4	3.081188E-3	3.216241E-3	1.107657E-4	5.035764E-4
10/19/2017  17:27:26.190926	3.373997E-1	7.181456E-4	7.076504E-3	2.191154E-3	1.981936E-3	1.747919E-3	2.133128E-3	3.885534E-3
10/19/2017  17:27:26.191926	1.879084E-1	4.769614E-3	1.441176E-3	4.860422E-3	9.634427E-4	5.200042E-3	2.814289E-3	1.781835E-3
10/19/2017  17:27:26.192926	1.049932E-1	9.672317E-4	5.347103E-3	3.273316E-3	5.603480E-3	5.563641E-3	1.055173E-2	5.800651E-3
10/19/2017  17:27:26.193926	4.488622E-1	6.170535E-3	7.897724E-3	3.693398E-4	1.158391E-2	6.642498E-3	4.930603E-4	6.273710E-3
10/19/2017  17:27:26.194926	4.334959E-1	8.896729E-3	7.951577E-3	2.606675E-3	3.645808E-4	4.991707E-3	4.681842E-3	8.805204E-3
10/19/2017  17:27:26.195926	7.181345E-2	6.819592E-3	1.472606E-2	8.844006E-3	4.638445E-3	7.318120E-4	1.782021E-3	4.164595E-3
10/19/2017  17:27:26.196926	6.936973E-2	9.195471E-3	5.094791E-4	5.846606E-3	1.146433E-3	6.975480E-3	3.978597E-3	3.695666E-3
10/19/2017  17:27:26.197926	7.721421E-2	4.652614E-3	6.894087E-4	9.831780E-3	5.260214E-3	8.295315E-3	3.259757E-3	1.594493E-3
10/19/2017  17:27:26.198926	7.441409E-2	5.813898E-3	8.191016E-4	9.459469E-3	2.850384E-3	2.660756E-3	4.775584E-3	1.154801E-3
10/19/2017  17:27:26.199926	3.289256E-1	6.400115E-3	9.048461E-4	2.302614E-2	7.687003E-5	3.946475E-3	2.974641E-3	3.091755E-3
10/19/2017  17:27:26.200926	5.444114E-1	6.431886E-3	9.845170E-3	3.698320E-3	4.323777E-3	8.278883E-3	8.847358E-3	2.129376E-3
10/19/2017  17:27:26.201926	3.454524E-1	2.434525E-3	4.512265E-3	1.759945E-3	5.683188E-3	7.034335E-3	3.181016E-4	5.790587E-3
								
10/19/2017  17:27:26.202926	4.186460E-1	4.880761E-3	1.902344E-2	1.308854E-3	1.800208E-3	6.936339E-3	4.773515E-3	4.911114E-4
10/19/2017  17:27:26.203926	3.271877E-1	3.023595E-3	2.694902E-3	5.541117E-3	3.223626E-3	2.124830E-3	1.163705E-2	7.045594E-4
10/19/2017  17:27:26.204926	8.212690E-2	6.533074E-3	1.569867E-2	3.711453E-3	1.898509E-3	1.507635E-2	3.010354E-3	5.172184E-3
10/19/2017  17:27:26.205926	1.865569E-1	1.094608E-2	1.542161E-4	1.477307E-5	1.357816E-3	4.294724E-3	3.786334E-3	6.009991E-3
10/19/2017  17:27:26.206926	9.632501E-2	8.012092E-3	1.887340E-3	1.612926E-3	1.018558E-2	1.232876E-2	1.970734E-3	4.462184E-3
10/19/2017  17:27:26.207926	2.490648E-1	4.082960E-3	5.621868E-3	3.858018E-3	3.367625E-3	2.159225E-3	5.977439E-3	1.143334E-3
10/19/2017  17:27:26.208926	3.185519E-2	3.258283E-3	6.475441E-3	7.684751E-3	2.135098E-3	7.436944E-3	7.181991E-3	1.353229E-3
10/19/2017  17:27:26.209926	6.728122E-3	9.008003E-3	6.790917E-3	3.648705E-3	3.207400E-3	3.217098E-3	7.764879E-3	3.382980E-3
10/19/2017  17:27:26.210926	2.401994E-1	4.542660E-3	1.964100E-3	5.941447E-4	4.441249E-4	6.488539E-3	1.368519E-3	1.094536E-2
10/19/2017  17:27:26.211926	8.786729E-1	1.410929E-2	4.165232E-4	8.102864E-3	4.946350E-3	2.028508E-3	5.463989E-3	5.739221E-3
10/19/2017  17:27:26.212926	1.168127E+0	3.414813E-3	1.088980E-2	3.316076E-3	5.806383E-3	1.213130E-2	1.500453E-3	2.749445E-4
10/19/2017  17:27:26.213926	1.851267E+0	1.376154E-2	3.043824E-3	6.225249E-4	3.980484E-3	4.543642E-3	7.910936E-3	2.848294E-3
10/19/2017  17:27:26.214926	1.696929E+0	3.320528E-3	2.131649E-3	3.473912E-3	8.372822E-3	3.277812E-3	3.537159E-3	2.450889E-3
10/19/2017  17:27:26.215926	1.735953E-1	8.694503E-3	3.518997E-3	2.416028E-3	1.907571E-2	6.593877E-3	2.359354E-3	6.552707E-3
10/19/2017  17:27:26.216926	6.587089E-1	4.013371E-3	6.472756E-3	2.267847E-3	1.090555E-2	1.608536E-5	7.266485E-3	1.902207E-3
10/19/2017  17:27:26.217926	9.633257E-1	6.025054E-3	9.075564E-3	1.937181E-2	6.075168E-3	9.081584E-3	3.105009E-3	8.068140E-3
10/19/2017  17:27:26.218926	1.030433E+0	8.663082E-3	4.045868E-3	1.350039E-2	1.681693E-4	4.447525E-3	4.339940E-3	8.448165E-3
10/19/2017  17:27:26.219926	5.137371E-1	1.502420E-3	6.277819E-3	6.557104E-3	2.397699E-3	5.220649E-3	1.164580E-2	4.604450E-3
10/19/2017  17:27:26.220926	1.944747E-1	5.422122E-4	1.561646E-2	1.648556E-2	4.768826E-3	9.638458E-4	1.218379E-3	1.323105E-3
10/19/2017  17:27:26.221926	6.048098E-2	1.318443E-2	4.304715E-3	5.658717E-3	1.106147E-3	9.725756E-3	4.267442E-3	9.857185E-3
10/19/2017  17:27:26.222926	1.709301E-1	3.069852E-3	7.689559E-3	8.859325E-3	9.617146E-3	6.967480E-3	1.025598E-2	3.892518E-3
10/19/2017  17:27:26.223926	3.742918E-2	4.353636E-3	1.011014E-3	7.041829E-3	6.629265E-3	6.153165E-3	5.514180E-3	5.784134E-3
10/19/2017  17:27:26.224926	2.080470E-1	5.179498E-3	1.408839E-3	1.852671E-2	2.373993E-3	4.549086E-3	1.861900E-3	5.973683E-3
10/19/2017  17:27:26.225926	3.270421E-1	5.278846E-3	9.245071E-4	5.016234E-3	4.489111E-3	7.504660E-3	7.327457E-3	5.020981E-3
10/19/2017  17:27:26.226926	4.882418E-1	6.114134E-3	8.112449E-3	2.830489E-2	5.863294E-3	3.688288E-3	4.966035E-3	8.458808E-3
10/19/2017  17:27:26.227926	1.588931E+0	2.199959E-3	1.167692E-2	7.067013E-3	2.034027E-3	5.136281E-3	9.945564E-3	2.362262E-3
10/19/2017  17:27:26.228926	1.220317E+0	5.936274E-3	5.268285E-4	6.448092E-3	1.105455E-3	2.674474E-3	9.464091E-3	3.537227E-3
10/19/2017  17:27:26.229926	1.393874E-1	6.762528E-3	5.803651E-3	5.147195E-3	8.306180E-3	1.687276E-3	2.195254E-3	4.459305E-3
10/19/2017  17:27:26.230926	8.156405E-1	3.825918E-3	1.153899E-2	3.025014E-4	3.905800E-3	1.281679E-3	1.612642E-2	3.582105E-3
10/19/2017  17:27:26.231926	4.192125E-1	2.640489E-3	1.925789E-3	6.623494E-3	3.772095E-3	9.859889E-3	7.013309E-3	4.974458E-3
10/19/2017  17:27:26.232926	2.993659E-1	1.129774E-2	1.393040E-3	1.633135E-3	1.687183E-3	2.631586E-3	4.222596E-3	3.601588E-3
10/19/2017  17:27:26.233926	3.287466E-1	2.934930E-3	3.095048E-3	3.310458E-3	5.278168E-3	7.038461E-3	7.848245E-3	2.818356E-4
10/19/2017  17:27:26.234926	5.163449E-3	1.214590E-4	1.997914E-3	2.405863E-3	5.102306E-3	5.062789E-3	1.488038E-3	2.033237E-5
								
10/19/2017  17:27:26.235926	3.085466E-2	2.427075E-3	1.082999E-3	1.640329E-3	3.694743E-3	1.818342E-2	5.316851E-3	8.821574E-3
10/19/2017  17:27:26.236926	4.814675E-2	1.111804E-2	3.327126E-4	1.000665E-3	3.990785E-3	2.634092E-3	1.333248E-3	4.644003E-3
10/19/2017  17:27:26.237926	4.277961E-1	5.577528E-3	2.697279E-4	1.685789E-3	3.628937E-3	1.324226E-2	1.618802E-3	5.499991E-3
10/19/2017  17:27:26.238926	2.867854E-2	1.739068E-2	2.899827E-3	1.004205E-2	6.772170E-3	8.708207E-4	8.007857E-3	6.253855E-4
10/19/2017  17:27:26.239926	3.060383E-1	3.512991E-3	4.704256E-3	8.171104E-3	2.196930E-3	2.712522E-3	5.019185E-3	7.190441E-3
10/19/2017  17:27:26.240926	1.606769E-1	2.369291E-3	4.981748E-3	1.477527E-3	1.256319E-3	2.574724E-3	3.384377E-3	3.513328E-3
10/19/2017  17:27:26.241926	4.822308E-2	4.388792E-3	3.421010E-3	3.419393E-3	3.748257E-3	4.118438E-3	4.433686E-3	4.580845E-3
10/19/2017  17:27:26.242926	1.786334E-4	1.363485E-3	7.097354E-4	2.473828E-3	9.719618E-3	7.233989E-4	3.396398E-3	2.960531E-3
10/19/2017  17:27:26.243926	1.075851E-2	5.625941E-3	9.549520E-3	3.832932E-3	7.065039E-3	3.934493E-4	3.292156E-4	4.855363E-3
10/19/2017  17:27:26.244926	1.457244E-1	4.500953E-3	1.797445E-3	8.346760E-3	1.457719E-2	4.193249E-3	1.910074E-3	4.974413E-4
10/19/2017  17:27:26.245926	9.817850E-2	3.534981E-3	5.578527E-3	3.783166E-3	1.215691E-4	3.483789E-3	8.670595E-4	2.174647E-3
10/19/2017  17:27:26.246926	1.895450E-1	7.012875E-3	2.754857E-3	1.049128E-2	4.450216E-3	4.528985E-3	4.971814E-3	4.610544E-3
10/19/2017  17:27:26.247926	9.173618E-3	1.607352E-3	3.025703E-6	8.449349E-4	7.529876E-3	5.741872E-3	1.199395E-3	5.856896E-3
10/19/2017  17:27:26.248926	5.132491E-1	7.762361E-3	4.491445E-3	6.163738E-3	7.116066E-4	2.100741E-3	1.613353E-3	1.531175E-2
10/19/2017  17:27:26.249926	7.455998E-1	1.110173E-3	7.605428E-3	1.310098E-2	4.285784E-3	4.929985E-3	5.764883E-3	1.862505E-4
10/19/2017  17:27:26.250926	1.818180E-1	7.458160E-3	8.513787E-4	6.296257E-3	1.247138E-3	3.279161E-3	1.129347E-4	1.138725E-2
10/19/2017  17:27:26.251926	5.131028E-1	1.272120E-3	8.384341E-3	1.137612E-2	3.119860E-3	1.319866E-2	8.637344E-3	2.627482E-3
10/19/2017  17:27:26.252926	8.063633E-1	7.520730E-3	6.008573E-3	4.922981E-3	2.581584E-3	7.195016E-4	2.920796E-3	1.793274E-3
10/19/2017  17:27:26.253926	3.240991E-1	3.431562E-3	6.809906E-3	1.316826E-3	8.782438E-3	8.320861E-3	1.785830E-3	1.089136E-3
10/19/2017  17:27:26.254926	4.593044E-1	3.723923E-4	9.281448E-3	3.506651E-3	4.437344E-3	2.813400E-3	7.250808E-4	8.130405E-3
10/19/2017  17:27:26.255926	3.320476E-1	2.466969E-3	1.096063E-2	3.397753E-4	2.913465E-3	2.246948E-3	2.289196E-3	7.006048E-4
10/19/2017  17:27:26.256926	3.676215E-1	1.693785E-3	1.206830E-2	1.962316E-3	9.171896E-3	2.850211E-3	2.255128E-3	1.134482E-2
10/19/2017  17:27:26.257926	2.432420E-1	7.593529E-3	2.861991E-3	5.692987E-3	4.493717E-3	8.548855E-3	1.512319E-2	9.644220E-4
10/19/2017  17:27:26.258926	1.167017E-1	7.645981E-3	1.355944E-2	4.857200E-3	1.250123E-3	1.366768E-2	2.129771E-3	7.672932E-3
10/19/2017  17:27:26.259926	2.749974E-1	1.178333E-2	3.069866E-3	3.605052E-3	1.148923E-3	3.146030E-3	3.032973E-3	5.707137E-3
10/19/2017  17:27:26.260926	3.476550E-1	7.414867E-3	4.077366E-3	2.535834E-3	5.845757E-3	6.754677E-3	8.793900E-3	2.836361E-4
10/19/2017  17:27:26.261926	7.618481E-1	1.664267E-2	1.905742E-3	2.686960E-3	1.963675E-3	2.795506E-3	2.564725E-3	8.909341E-3
10/19/2017  17:27:26.262926	7.274647E-1	9.503341E-4	4.015183E-3	4.180274E-3	3.096940E-3	8.822210E-3	1.512354E-4	3.906639E-3
10/19/2017  17:27:26.263926	8.185733E-1	6.100515E-3	3.227625E-3	5.065580E-3	1.171525E-4	4.812433E-3	6.526427E-5	8.542864E-5
10/19/2017  17:27:26.264926	5.876100E-1	4.438004E-3	2.535134E-3	3.188779E-3	2.030485E-3	5.790602E-3	2.253828E-4	1.567111E-2
10/19/2017  17:27:26.265926	6.848291E-1	5.602230E-3	4.089939E-3	9.008425E-3	7.341649E-3	2.410990E-3	3.367586E-4	1.747281E-3
10/19/2017  17:27:26.266926	3.242153E-1	3.737342E-4	1.462014E-3	1.792471E-4	1.398091E-3	1.743123E-3	2.564074E-3	3.427786E-3
10/19/2017  17:27:26.267926	1.162658E-1	3.502471E-4	1.084254E-3	1.112864E-2	1.009924E-3	9.708463E-4	2.424755E-3	4.150910E-3
								
10/19/2017  17:27:26.268926	1.970105E-1	6.799617E-3	1.390193E-3	1.174293E-2	5.147057E-4	1.440958E-3	1.592385E-3	1.380832E-3
10/19/2017  17:27:26.269926	9.921675E-2	3.299294E-4	7.698280E-3	4.732802E-3	4.215897E-3	3.361194E-3	3.071737E-3	9.628425E-3
10/19/2017  17:27:26.270926	1.913759E-1	6.526102E-3	5.244342E-3	1.423234E-2	1.210207E-3	4.497610E-3	2.493387E-3	4.319316E-3
10/19/2017  17:27:26.271926	7.862187E-1	4.698926E-3	3.276006E-3	7.690238E-3	1.439920E-3	7.661042E-4	6.950884E-5	1.269587E-2
10/19/2017  17:27:26.272926	5.576424E-1	3.154675E-3	7.139899E-3	1.020081E-2	1.128214E-3	1.638099E-4	1.898449E-3	7.121559E-3
10/19/2017  17:27:26.273926	4.064852E-1	2.919433E-4	9.733993E-4	7.427713E-4	8.567922E-4	2.479045E-3	3.362366E-3	5.869368E-3
10/19/2017  17:27:26.274926	1.263538E-1	6.411777E-4	5.670306E-3	3.590293E-4	6.225355E-4	4.307765E-3	2.694716E-3	6.339532E-3
10/19/2017  17:27:26.275926	3.502411E-2	3.414010E-3	6.148722E-4	4.156179E-5	4.224257E-4	3.181274E-3	6.612698E-5	2.251948E-3
10/19/2017  17:27:26.276926	5.792652E-2	4.663049E-3	7.292319E-3	1.749682E-2	4.073589E-3	2.390636E-3	1.017089E-4	1.872492E-3
10/19/2017  17:27:26.277926	4.793162E-2	3.835577E-3	5.290002E-3	9.574184E-3	1.533562E-3	4.160997E-3	6.684622E-3	7.993913E-3
10/19/2017  17:27:26.278926	2.210418E-1	7.410358E-3	5.057347E-3	9.211832E-3	5.508182E-3	1.389196E-2	3.067620E-4	3.092619E-3
10/19/2017  17:27:26.279926	2.680766E-1	3.301198E-3	4.975087E-3	4.444139E-3	5.945889E-3	5.669720E-3	6.495705E-3	6.644416E-3
10/19/2017  17:27:26.280926	3.872713E-1	2.231290E-3	7.621531E-3	5.453342E-3	2.699752E-3	8.746838E-3	6.806889E-3	4.588420E-3
10/19/2017  17:27:26.281926	1.506993E+0	2.966304E-3	4.799476E-4	5.494837E-4	6.678686E-3	1.943698E-3	6.228293E-3	3.593506E-3
10/19/2017  17:27:26.282926	6.362455E-1	1.032637E-4	6.922918E-3	4.855341E-3	2.768893E-3	8.905684E-4	4.089538E-3	7.035097E-4
10/19/2017  17:27:26.283926	1.979782E+0	8.828889E-3	1.200371E-2	7.730052E-3	1.702601E-4	3.577057E-3	5.928495E-3	2.917090E-3
10/19/2017  17:27:26.284926	1.719994E+0	1.036739E-2	6.501743E-3	7.253756E-3	8.772317E-3	8.495157E-3	2.241762E-3	4.378270E-3
10/19/2017  17:27:26.285926	1.842127E+0	1.065062E-2	7.172841E-5	1.076934E-2	1.564152E-3	4.785024E-3	1.563683E-3	1.261324E-3
10/19/2017  17:27:26.286926	1.173297E+0	5.935539E-3	2.427700E-3	1.709702E-3	3.737543E-3	3.337603E-3	1.145845E-3	7.444963E-3
10/19/2017  17:27:26.287926	1.385128E+0	4.461090E-3	1.061701E-2	8.105456E-3	1.174724E-2	1.298090E-2	9.509092E-3	2.925645E-3
10/19/2017  17:27:26.288926	8.507786E-1	7.523721E-3	5.221866E-3	9.248912E-3	8.323695E-3	4.698428E-3	2.115669E-3	1.343133E-2
10/19/2017  17:27:26.289926	9.366026E-1	7.898525E-3	1.102930E-3	8.339382E-3	1.055533E-3	8.003703E-3	3.363932E-3	1.379328E-2
10/19/2017  17:27:26.290926	9.002395E-1	1.217779E-2	3.498634E-3	3.556820E-3	7.819667E-3	4.443117E-4	1.416280E-3	6.072097E-3
10/19/2017  17:27:26.291926	8.689378E-1	2.597920E-3	9.426227E-3	1.227986E-3	3.719288E-3	2.156484E-3	1.738228E-3	5.072650E-3
10/19/2017  17:27:26.292926	5.438474E-2	2.180247E-2	3.204921E-4	8.198482E-3	1.143386E-2	8.272398E-3	3.260763E-4	6.344769E-3
10/19/2017  17:27:26.293926	1.484498E-1	4.223794E-3	4.094600E-3	1.072390E-2	8.598637E-4	2.811019E-3	6.892074E-3	2.695515E-3
10/19/2017  17:27:26.294926	1.523131E-1	1.222282E-3	6.031159E-4	5.571525E-3	1.055060E-3	4.439288E-3	1.127195E-3	8.602819E-3
10/19/2017  17:27:26.295926	5.450747E-1	9.826783E-3	2.367240E-3	1.354968E-2	3.346781E-3	5.668086E-3	3.409828E-4	6.965965E-3
10/19/2017  17:27:26.296926	3.981339E-1	2.625758E-3	9.449408E-3	2.951236E-3	8.110723E-3	6.220209E-3	8.910128E-3	1.138348E-2
10/19/2017  17:27:26.297926	4.809029E-1	1.616120E-3	2.410909E-3	2.670169E-3	8.019898E-4	4.158813E-3	8.708983E-3	9.738223E-3
10/19/2017  17:27:26.298926	7.021137E-1	5.692401E-3	2.788593E-3	6.611332E-3	2.394423E-3	1.266458E-2	3.830217E-3	1.158733E-2
10/19/2017  17:27:26.299926	7.600268E-1	6.400217E-3	1.290462E-2	4.820817E-3	1.113684E-2	6.947640E-3	6.379630E-3	5.697883E-4
10/19/2017  17:27:26.300926	2.737691E-1	4.177910E-3	2.012584E-3	5.360700E-3	6.133748E-3	8.301803E-3	4.852683E-3	6.930894E-4
								
10/19/2017  17:27:26.301926	5.305516E-1	7.291790E-3	4.057807E-3	1.128567E-2	8.107083E-5	1.244367E-2	7.610575E-4	7.255730E-3
10/19/2017  17:27:26.302926	7.480512E-1	3.769850E-3	3.208788E-3	3.217013E-3	6.464157E-3	6.756488E-3	4.751655E-3	1.166127E-2
10/19/2017  17:27:26.303926	6.254155E-1	2.953438E-3	4.618609E-3	4.937058E-3	6.906803E-5	1.167399E-2	5.568644E-3	1.163160E-2
10/19/2017  17:27:26.304926	3.360931E-1	6.559545E-3	3.225533E-3	4.799349E-3	1.103506E-2	3.884951E-3	8.456750E-3	6.310429E-3
10/19/2017  17:27:26.305926	1.255459E-1	2.123885E-4	2.060422E-3	3.587550E-3	3.358788E-3	8.412413E-3	2.798729E-3	2.137894E-3
10/19/2017  17:27:26.306926	2.893507E-1	7.444114E-5	7.197137E-3	5.200636E-3	4.537631E-3	2.519746E-3	2.156243E-3	8.142968E-3
10/19/2017  17:27:26.307926	6.918757E-1	2.462069E-3	3.744755E-3	1.845942E-3	7.513282E-4	5.341418E-4	5.912590E-3	8.592565E-4
10/19/2017  17:27:26.308926	9.864839E-2	2.385428E-3	9.297643E-3	7.105357E-3	4.176523E-3	5.904783E-3	6.172132E-3	5.159097E-3
10/19/2017  17:27:26.309926	3.263518E-2	1.426080E-3	2.270722E-3	1.939540E-3	1.080730E-3	1.600778E-3	1.554418E-2	1.546224E-3
10/19/2017  17:27:26.310926	3.596124E-1	7.996144E-3	1.053404E-2	4.096850E-3	6.038092E-3	1.241661E-2	2.828048E-4	1.137109E-3
10/19/2017  17:27:26.311926	1.921586E-1	1.227296E-2	1.264668E-3	1.185131E-3	2.257954E-3	2.541889E-3	6.120476E-5	1.287123E-3
10/19/2017  17:27:26.312926	2.451280E-1	3.970609E-3	1.070223E-3	1.227800E-3	2.721876E-3	1.789945E-3	2.269719E-3	5.674875E-3
10/19/2017  17:27:26.313926	3.195137E-2	1.088605E-2	1.275647E-3	1.203139E-2	6.809501E-3	3.162586E-3	3.850060E-3	3.606775E-4
10/19/2017  17:27:26.314926	1.877234E-1	6.024186E-3	5.735594E-3	1.098599E-2	3.948998E-3	4.200102E-3	1.668852E-3	1.332931E-2
10/19/2017  17:27:26.315926	3.535690E-1	4.212395E-3	4.603814E-3	7.614614E-3	5.027791E-3	5.814564E-3	7.735290E-3	4.445270E-4
10/19/2017  17:27:26.316926	1.613844E-1	1.573660E-3	3.207356E-3	6.000183E-3	5.559436E-3	8.450052E-3	9.511270E-4	1.106714E-2
10/19/2017  17:27:26.317926	1.462483E-1	2.237416E-2	1.122671E-4	1.340815E-2	5.648381E-3	7.330532E-3	1.847296E-3	3.772815E-3
10/19/2017  17:27:26.318926	1.184090E-1	2.487968E-3	1.114989E-2	8.440744E-4	9.757361E-3	7.587231E-3	8.119902E-3	3.806423E-3
10/19/2017  17:27:26.319926	6.916278E-2	9.593752E-3	9.935776E-3	3.674149E-4	1.613182E-2	5.534883E-3	1.481128E-3	6.925705E-3
10/19/2017  17:27:26.320926	2.572514E-2	1.004303E-2	6.569624E-3	4.351300E-3	1.652917E-3	6.106100E-3	9.337422E-4	2.349749E-3
10/19/2017  17:27:26.321926	1.347384E-1	5.638816E-3	9.427469E-4	3.260114E-3	5.756669E-3	2.409987E-3	4.752481E-4	5.419689E-3
10/19/2017  17:27:26.322926	2.363298E-1	2.225625E-3	5.541671E-3	2.341456E-3	6.298807E-3	1.821851E-4	8.532857E-3	6.492822E-3
10/19/2017  17:27:26.323926	2.048879E-1	3.352882E-4	2.437416E-6	9.222953E-3	6.591918E-3	8.770116E-3	3.847001E-3	1.130465E-2
10/19/2017  17:27:26.324926	2.880882E-2	1.187968E-5	8.272785E-3	1.775087E-4	4.761358E-3	4.018426E-3	2.782478E-4	3.037106E-3
10/19/2017  17:27:26.325926	8.105167E-1	2.372766E-3	5.637072E-3	3.820777E-3	7.536221E-3	1.775902E-3	1.750676E-4	1.847586E-3
10/19/2017  17:27:26.326926	4.014984E-2	8.283750E-3	1.329197E-2	4.310070E-3	8.165476E-3	8.061490E-3	5.239027E-4	7.710046E-3
10/19/2017  17:27:26.327926	1.225928E+0	1.327785E-3	3.094523E-3	8.570963E-3	1.048583E-2	1.440706E-3	1.376308E-3	9.947166E-3
10/19/2017  17:27:26.328926	1.181431E+0	1.645736E-3	8.769816E-5	4.558279E-3	7.353593E-3	5.554095E-3	5.982788E-3	1.049466E-2
10/19/2017  17:27:26.329926	5.610939E-1	3.776900E-3	1.918225E-3	4.978340E-3	8.254415E-3	4.632351E-4	8.872838E-3	7.471730E-3
10/19/2017  17:27:26.330926	3.747126E-2	8.782276E-4	7.555730E-3	1.157077E-2	4.000233E-3	1.126659E-2	1.907383E-3	1.552912E-3
10/19/2017  17:27:26.331926	3.183450E-1	9.591679E-4	5.412526E-3	1.670017E-2	3.566066E-3	1.250072E-3	1.070430E-3	8.023397E-3
10/19/2017  17:27:26.332926	5.168250E-1	5.453840E-3	5.023480E-3	1.259994E-2	4.515955E-3	3.897107E-3	1.399003E-2	6.122169E-4
10/19/2017  17:27:26.333926	5.763426E-1	3.190430E-3	7.993924E-3	1.718904E-3	6.406659E-4	9.615231E-3	1.077585E-3	8.949702E-3
								
10/19/2017  17:27:26.334926	1.491430E-1	1.149354E-2	9.692811E-3	5.480483E-3	5.224550E-5	6.818696E-3	1.476931E-2	3.717037E-3
10/19/2017  17:27:26.335926	6.406536E-1	6.189172E-3	9.043115E-3	5.026288E-3	2.752246E-3	4.174850E-3	3.922700E-3	8.916198E-3
10/19/2017  17:27:26.336926	7.944061E-1	1.086478E-2	4.818499E-3	5.881819E-3	6.768374E-3	5.462816E-3	1.273968E-2	6.861963E-3
10/19/2017  17:27:26.337926	7.766652E-1	3.208423E-3	5.087167E-4	1.052549E-2	5.781268E-3	1.263573E-2	4.757339E-3	1.388235E-3
10/19/2017  17:27:26.338926	3.910180E-1	8.967079E-3	8.659984E-3	6.117173E-3	5.883273E-3	4.384680E-3	3.094688E-3	9.415129E-3
10/19/2017  17:27:26.339926	5.937998E-2	2.241472E-3	6.726912E-3	6.110612E-4	1.598849E-2	1.863360E-2	1.122111E-2	2.537708E-3
10/19/2017  17:27:26.340926	2.260717E-1	2.698177E-3	2.377330E-3	5.477758E-3	7.218635E-3	6.511883E-3	5.923078E-3	8.915838E-3
10/19/2017  17:27:26.341926	4.544874E-1	6.124553E-3	3.044058E-3	5.211901E-3	5.393009E-4	5.864105E-3	4.659681E-3	1.096367E-2
10/19/2017  17:27:26.342926	5.849860E-1	3.490611E-4	1.114680E-2	1.692545E-2	2.184499E-3	2.803731E-3	3.461971E-3	7.511976E-3
10/19/2017  17:27:26.343926	5.076332E-1	5.032705E-3	1.340440E-3	6.247291E-3	2.286808E-4	2.488367E-3	1.863455E-3	1.186380E-2
10/19/2017  17:27:26.344926	5.347285E-4	1.467693E-2	6.576903E-4	4.788350E-3	2.423472E-3	4.344603E-3	8.689001E-4	2.827802E-3
10/19/2017  17:27:26.345926	3.090553E-1	7.128563E-3	8.909212E-5	9.431581E-3	6.546884E-3	9.689409E-4	7.981476E-3	4.673494E-3
10/19/2017  17:27:26.346926	4.798507E-2	5.266094E-3	2.534900E-3	6.253302E-3	2.502049E-3	6.061208E-3	3.301206E-3	3.646012E-3
10/19/2017  17:27:26.347926	3.185203E-1	3.691576E-3	2.123070E-3	7.179974E-3	6.811173E-3	4.258228E-3	4.838076E-3	4.895669E-3
10/19/2017  17:27:26.348926	3.919965E-2	6.256278E-3	1.149082E-3	3.617676E-3	5.328819E-3	6.959589E-4	3.586716E-3	9.264297E-4
10/19/2017  17:27:26.349926	4.028305E-1	2.344195E-3	5.665303E-3	5.242295E-3	4.607129E-3	2.402269E-3	6.105463E-3	7.265780E-3
10/19/2017  17:27:26.350926	8.191853E-1	2.752255E-3	8.697134E-3	4.026869E-3	1.151903E-2	7.293734E-3	1.523006E-4	1.439006E-2
10/19/2017  17:27:26.351926	6.067729E-1	6.309112E-3	3.074705E-4	9.999010E-3	5.736568E-3	5.316131E-3	1.799413E-3	5.543988E-3
10/19/2017  17:27:26.352926	1.086844E-2	2.217095E-3	4.012780E-3	4.131441E-3	9.323974E-3	1.472501E-3	9.366853E-4	3.316906E-3
10/19/2017  17:27:26.353926	3.930744E-1	2.524194E-3	1.467498E-2	9.864223E-4	7.203089E-3	1.396083E-3	4.077348E-3	3.156739E-3
10/19/2017  17:27:26.354926	5.984041E-1	4.985721E-3	6.240690E-4	6.188302E-3	3.197958E-3	7.750145E-3	1.101644E-3	1.592514E-2
10/19/2017  17:27:26.355926	3.738099E-1	1.539885E-3	1.164570E-2	1.269084E-2	4.166960E-3	3.351889E-3	9.071480E-3	1.477151E-3
10/19/2017  17:27:26.356926	5.208455E-1	7.617560E-3	4.699420E-3	4.557733E-3	1.533507E-3	2.133699E-3	5.072632E-3	3.138121E-3
10/19/2017  17:27:26.357926	4.350798E-1	3.491315E-3	3.298974E-3	1.463944E-2	3.401542E-3	1.031162E-2	6.449413E-3	1.445142E-4
10/19/2017  17:27:26.358926	2.534390E-1	4.889881E-3	4.351223E-3	3.850154E-4	6.739919E-3	5.978611E-4	9.335673E-3	3.671811E-4
10/19/2017  17:27:26.359926	4.586321E-1	7.832845E-4	1.030442E-3	3.895039E-3	4.185768E-3	1.078340E-2	2.353358E-3	7.010079E-3
10/19/2017  17:27:26.360926	7.280844E-1	3.813562E-3	1.409861E-3	2.641507E-4	7.578283E-3	3.080482E-3	7.124839E-3	6.862999E-4
10/19/2017  17:27:26.361926	2.180934E-1	4.779257E-4	9.442973E-4	6.747520E-3	3.286353E-3	6.437715E-3	2.852695E-3	4.096814E-4
10/19/2017  17:27:26.362926	4.703702E-1	2.367352E-3	3.756301E-3	5.059275E-3	1.310636E-2	4.420378E-3	8.985771E-3	1.979595E-3
10/19/2017  17:27:26.363926	9.706585E-2	1.449889E-3	5.992967E-3	7.158754E-3	2.213197E-3	5.592894E-3	4.137492E-3	5.014662E-3
10/19/2017  17:27:26.364926	1.006370E+0	3.613585E-3	6.256690E-3	4.788633E-3	7.983811E-3	4.599354E-3	1.743933E-3	7.466114E-3
10/19/2017  17:27:26.365926	5.754451E-1	7.108457E-3	1.114563E-2	1.523229E-3	4.221334E-3	1.236582E-3	8.106954E-3	1.012971E-3
10/19/2017  17:27:26.366926	2.186403E-2	3.660382E-3	5.904149E-3	3.913008E-3	3.539625E-3	3.241754E-3	5.981780E-4	2.791711E-3
								
10/19/2017  17:27:26.367926	4.128709E-1	1.126135E-2	3.193578E-4	1.200477E-3	1.005296E-2	6.246442E-3	3.482836E-4	6.089537E-3
10/19/2017  17:27:26.368926	7.221039E-1	3.225601E-3	6.977946E-3	3.571075E-3	2.009723E-3	1.960403E-2	6.605556E-3	2.641608E-3
10/19/2017  17:27:26.369926	7.411500E-2	1.570040E-2	3.646992E-3	5.163443E-3	2.529600E-3	3.710856E-3	1.735981E-5	2.373093E-3
10/19/2017  17:27:26.370926	5.568134E-1	2.370263E-3	1.840958E-3	9.016455E-3	5.968588E-3	1.210123E-3	5.222384E-4	4.262084E-3
10/19/2017  17:27:26.371926	1.200501E-1	1.385766E-2	7.232957E-3	1.012886E-2	1.623793E-2	3.983631E-3	9.546242E-3	1.030136E-3
10/19/2017  17:27:26.372926	7.670619E-1	5.502346E-3	3.873255E-3	1.554284E-2	1.301490E-3	7.582609E-3	2.692578E-3	6.939153E-3
10/19/2017  17:27:26.373926	8.714652E-1	5.100916E-3	9.323999E-4	5.494978E-3	7.334032E-3	3.368574E-3	8.830478E-3	8.581738E-3
10/19/2017  17:27:26.374926	2.727303E-1	4.297047E-4	1.175989E-2	5.590450E-3	8.448352E-3	6.650457E-3	2.719014E-3	2.121087E-3
10/19/2017  17:27:26.375926	6.326278E-2	8.569666E-3	2.577873E-3	2.571931E-3	6.516140E-3	6.430083E-3	2.314135E-3	6.010316E-3
10/19/2017  17:27:26.376926	6.738563E-1	2.619316E-3	8.480268E-3	1.837866E-3	1.331997E-2	1.686249E-3	4.099640E-3	2.044009E-3
10/19/2017  17:27:26.377926	1.815925E+0	4.099972E-3	1.536275E-3	1.023338E-2	9.684474E-3	5.272430E-3	9.523886E-3	5.256465E-3
10/19/2017  17:27:26.378926	8.399335E-1	2.826172E-3	7.881314E-3	3.355078E-3	8.338425E-5	3.257436E-3	2.184766E-3	1.666144E-3
10/19/2017  17:27:26.379926	9.775190E-1	4.704167E-3	3.517323E-3	4.721010E-3	4.742681E-3	7.035373E-3	5.403313E-3	7.654005E-3
10/19/2017  17:27:26.380926	9.164809E-1	7.755441E-3	1.954817E-3	1.138764E-3	5.873181E-4	5.540809E-3	4.187149E-3	7.817567E-3
10/19/2017  17:27:26.381926	4.698617E-1	5.536249E-3	3.658537E-3	2.783524E-3	6.498834E-3	4.236808E-3	5.488449E-3	5.650398E-3
10/19/2017  17:27:26.382926	4.308287E-1	1.930222E-3	6.878290E-3	2.106451E-2	1.720228E-3	1.208400E-3	5.702465E-3	6.987635E-3
10/19/2017  17:27:26.383926	3.962710E-1	7.402399E-4	8.417898E-3	3.578095E-3	1.055766E-2	7.233388E-3	9.561890E-3	1.011177E-2
10/19/2017  17:27:26.384926	3.896132E-1	6.933417E-3	3.945813E-3	2.779408E-2	3.856396E-3	2.587972E-3	1.800148E-2	2.498412E-3
10/19/2017  17:27:26.385926	3.173911E-1	4.065053E-3	1.241997E-2	3.005091E-3	5.411070E-3	1.386549E-2	4.810933E-3	3.160476E-3
10/19/2017  17:27:26.386926	5.540122E-1	1.042071E-3	1.341617E-4	2.333656E-3	3.112894E-3	1.345433E-3	1.674122E-2	4.995534E-3
10/19/2017  17:27:26.387926	7.057432E-1	1.004070E-3	1.136427E-2	3.963786E-4	1.226257E-3	1.273087E-3	7.805730E-3	1.819563E-3
10/19/2017  17:27:26.388926	1.302124E+0	5.271541E-3	2.653802E-3	1.664170E-4	6.781663E-3	5.278726E-3	1.003919E-2	8.119309E-3
10/19/2017  17:27:26.389926	1.485911E+0	5.210705E-4	1.830757E-3	2.185748E-3	1.665663E-2	7.182469E-3	2.539869E-3	1.504264E-3
10/19/2017  17:27:26.390926	3.661082E-1	4.667083E-3	1.010238E-3	1.633492E-3	7.536011E-4	7.019829E-4	5.178332E-3	9.809081E-3
10/19/2017  17:27:26.391926	2.926560E+0	5.267528E-3	9.494427E-3	9.925623E-4	4.588668E-3	4.607632E-3	4.065525E-3	2.382713E-3
10/19/2017  17:27:26.392926	1.246754E+0	5.423616E-3	4.286585E-3	7.968345E-3	1.536708E-3	5.787803E-3	5.257617E-3	5.270583E-3
10/19/2017  17:27:26.393926	7.423530E-1	3.406353E-3	1.083439E-3	5.398312E-3	5.903989E-3	1.501065E-2	5.962571E-4	6.255384E-3
10/19/2017  17:27:26.394926	6.106409E-1	1.830698E-2	9.065704E-4	2.490549E-3	4.192934E-3	7.467430E-3	2.634064E-3	2.108747E-4
10/19/2017  17:27:26.395926	7.221966E-1	2.313036E-3	5.725153E-3	9.237354E-3	8.209963E-3	6.126056E-3	1.824353E-3	1.997449E-3
10/19/2017  17:27:26.396926	3.843934E-1	1.580864E-2	3.730287E-3	4.292735E-3	1.243212E-2	6.226644E-4	1.149615E-3	7.814733E-3
10/19/2017  17:27:26.397926	4.438951E-1	4.383923E-3	6.565619E-3	1.245809E-2	2.458254E-3	1.161525E-3	3.719106E-3	8.322478E-4
10/19/2017  17:27:26.398926	2.458482E-1	1.056508E-2	7.243891E-3	1.998577E-4	1.097797E-2	6.292241E-3	4.905514E-3	4.483609E-5
10/19/2017  17:27:26.399926	7.230517E-1	1.451878E-3	3.097538E-3	2.165718E-3	1.512778E-3	2.776409E-3	3.105494E-3	9.200595E-3
								
10/19/2017  17:27:26.400926	6.353957E-1	9.942566E-3	3.544052E-5	5.426415E-4	1.018459E-3	6.615246E-3	2.043634E-3	6.823666E-3
10/19/2017  17:27:26.401926	1.224823E-2	1.685209E-3	6.621545E-3	8.942589E-3	9.258941E-3	2.600551E-3	7.301485E-3	4.699923E-4
10/19/2017  17:27:26.402926	4.389496E-1	2.934747E-3	2.601567E-4	5.689526E-4	9.083626E-3	6.905134E-3	9.380154E-3	2.319735E-3
10/19/2017  17:27:26.403926	7.256054E-1	1.767228E-3	6.507413E-3	7.437890E-3	2.453055E-3	4.809690E-3	6.850925E-3	2.968721E-3
10/19/2017  17:27:26.404926	8.351682E-1	7.905366E-4	2.445388E-3	1.272568E-3	6.251538E-3	5.566617E-3	7.476724E-3	6.678648E-3
10/19/2017  17:27:26.405926	8.778693E-1	2.145715E-3	6.085996E-4	1.109561E-3	2.220401E-3	6.316720E-3	3.281626E-3	6.046955E-3
10/19/2017  17:27:26.406926	4.503402E-1	7.907594E-4	7.120915E-3	9.590614E-3	7.280855E-3	2.233987E-3	4.215426E-3	1.960714E-3
10/19/2017  17:27:26.407926	1.288715E-1	4.621601E-3	2.850358E-3	2.279995E-3	5.127735E-3	3.002590E-3	5.113647E-3	7.584778E-3
10/19/2017  17:27:26.408926	3.517367E-1	8.384816E-3	2.530330E-3	7.450660E-3	5.344882E-3	6.671316E-3	9.579455E-4	5.502203E-3
10/19/2017  17:27:26.409926	1.453331E-1	4.286860E-3	8.464522E-3	1.609499E-2	6.181943E-3	3.927957E-3	1.609326E-2	7.042598E-3
10/19/2017  17:27:26.410926	5.302598E-2	1.166305E-3	4.935355E-3	6.629832E-3	2.144316E-3	1.584779E-3	1.815811E-3	4.955256E-3
10/19/2017  17:27:26.411926	6.335174E-2	1.118933E-3	3.573120E-3	1.628287E-2	1.548896E-3	1.176945E-2	6.045828E-3	3.280436E-3
10/19/2017  17:27:26.412926	7.311758E-1	9.173009E-3	1.322306E-2	1.247267E-3	1.040522E-3	7.842343E-4	2.187212E-4	4.602531E-4
10/19/2017  17:27:26.413926	4.437898E-1	1.354729E-2	4.233054E-3	7.787848E-3	6.120715E-4	9.854725E-3	1.043586E-2	2.754161E-3
10/19/2017  17:27:26.414926	1.672314E+0	3.410765E-3	1.666874E-2	1.204896E-3	8.397683E-3	1.287727E-3	2.476455E-3	2.173912E-3
10/19/2017  17:27:26.415926	8.308540E-2	4.051230E-3	1.119699E-3	3.338143E-3	2.808260E-3	1.573362E-3	5.603704E-3	3.441534E-3
10/19/2017  17:27:26.416926	1.475635E+0	2.769589E-3	1.144889E-2	9.067426E-3	2.103095E-3	1.433916E-3	4.765869E-3	2.314637E-3
10/19/2017  17:27:26.417926	5.547220E-1	3.871255E-3	9.765437E-3	4.505410E-3	3.662854E-3	8.648282E-4	8.314059E-3	2.074666E-3
10/19/2017  17:27:26.418926	1.744286E-1	8.485369E-3	9.529727E-3	3.279248E-3	8.376267E-3	8.929923E-3	1.883850E-3	3.209433E-4
10/19/2017  17:27:26.419926	1.462698E-1	1.052790E-2	1.858986E-3	4.398920E-3	2.811254E-3	9.466180E-3	1.488550E-3	2.314005E-3
10/19/2017  17:27:26.420926	3.607140E-2	1.466790E-3	7.813219E-3	5.822693E-3	4.398244E-3	1.584878E-2	5.339945E-3	4.504853E-3
10/19/2017  17:27:26.421926	1.510838E-1	1.224684E-2	1.237849E-3	6.456719E-3	7.173545E-4	8.350871E-3	2.940088E-3	1.615161E-3
10/19/2017  17:27:26.422926	9.693654E-2	4.559264E-5	5.574836E-3	2.027291E-3	1.707884E-4	1.030342E-2	4.461089E-3	8.142579E-3
10/19/2017  17:27:26.423926	9.482930E-2	4.209691E-3	1.986154E-3	5.895385E-3	8.915508E-3	6.048629E-3	3.285631E-3	6.008860E-3
10/19/2017  17:27:26.424926	7.490605E-4	1.026262E-2	2.840563E-3	2.348993E-4	2.078454E-3	4.015734E-3	2.248931E-3	6.339814E-3
10/19/2017  17:27:26.425926	1.317312E-1	3.535922E-3	6.175277E-3	1.826235E-3	5.114480E-3	4.055416E-3	7.598040E-4	4.550085E-3
10/19/2017  17:27:26.426926	1.517801E-1	3.764089E-4	2.535597E-3	1.407606E-2	2.917930E-3	1.089753E-3	2.895463E-3	5.757056E-3
10/19/2017  17:27:26.427926	3.697266E-1	2.413102E-3	1.088949E-2	7.591432E-3	4.238531E-3	2.568332E-3	6.453615E-3	2.241130E-3
10/19/2017  17:27:26.428926	1.905153E-1	9.175579E-3	5.616769E-3	1.044103E-2	4.977504E-3	7.303139E-3	6.535507E-3	5.712857E-3
10/19/2017  17:27:26.429926	1.857652E-1	4.124788E-3	9.260941E-3	7.873332E-3	1.206636E-2	9.772689E-3	4.080056E-3	7.905582E-3
10/19/2017  17:27:26.430926	5.293344E-1	4.070706E-3	8.768127E-3	8.053593E-4	4.334722E-3	2.860900E-4	1.306184E-2	1.038225E-2
10/19/2017  17:27:26.431926	5.560199E-1	7.681317E-3	4.966578E-3	2.699894E-3	1.441989E-3	6.604152E-3	1.136700E-3	3.720460E-3
10/19/2017  17:27:26.432926	6.378115E-1	1.326276E-3	1.249609E-2	2.544195E-3	9.880460E-3	4.821805E-3	9.891959E-4	5.276027E-3
								
10/19/2017  17:27:26.433926	2.135544E-1	1.019957E-3	5.750354E-5	6.206570E-3	4.678114E-3	5.304437E-3	4.038424E-3	1.481595E-2
10/19/2017  17:27:26.434926	6.783633E-2	7.873000E-3	4.618859E-3	8.738771E-3	1.484341E-3	8.019522E-3	1.123318E-3	2.755390E-3
10/19/2017  17:27:26.435926	1.195174E-2	3.377051E-3	1.324590E-3	2.493381E-3	8.063960E-3	3.390540E-3	6.029564E-3	1.532304E-2
10/19/2017  17:27:26.436926	2.963909E-1	2.722064E-3	1.069760E-3	3.332929E-4	1.640827E-3	5.760802E-3	2.291016E-3	6.545374E-3
10/19/2017  17:27:26.437926	3.190604E-1	8.644250E-3	1.308792E-3	4.124866E-3	9.541940E-3	5.250051E-3	6.977463E-3	2.575446E-3
10/19/2017  17:27:26.438926	5.394047E-1	1.285114E-3	7.866910E-4	2.813262E-3	2.342993E-3	4.261622E-3	3.728877E-4	4.724538E-3
10/19/2017  17:27:26.439926	3.963041E-1	1.276536E-2	3.544344E-4	1.712085E-3	4.343175E-3	6.426146E-3	4.426766E-3	1.026799E-3
10/19/2017  17:27:26.440926	1.816249E-1	3.569960E-3	3.180901E-6	1.358795E-3	1.285444E-3	3.102459E-3	9.855938E-3	7.284051E-3
10/19/2017  17:27:26.441926	2.194789E-1	4.053166E-5	1.107321E-2	1.389084E-3	9.578059E-4	9.252243E-3	3.961163E-3	1.509703E-3
10/19/2017  17:27:26.442926	3.588098E-1	4.685691E-3	8.953959E-4	2.935402E-3	3.485527E-4	3.988566E-3	1.806825E-2	9.956656E-3
10/19/2017  17:27:26.443926	3.455740E-1	5.062177E-3	3.013338E-3	1.550726E-3	1.094377E-2	4.690169E-3	2.833252E-3	1.684486E-3
10/19/2017  17:27:26.444926	1.046830E+0	3.197699E-3	9.428524E-5	6.052513E-3	1.258489E-3	5.845613E-3	9.176497E-3	5.686691E-3
10/19/2017  17:27:26.445926	1.160372E+0	9.118182E-3	1.554257E-4	1.129511E-2	1.476683E-3	1.319320E-2	2.565335E-3	3.989758E-3
10/19/2017  17:27:26.446926	4.747438E-1	8.954717E-3	6.678159E-3	2.720965E-3	3.411448E-3	3.719248E-3	4.463470E-3	1.754129E-3
10/19/2017  17:27:26.447926	1.632425E-1	8.859317E-3	6.216896E-3	2.644054E-4	3.449419E-4	1.144076E-2	3.636976E-3	3.678558E-3
10/19/2017  17:27:26.448926	6.911603E-1	6.188165E-3	2.052401E-3	8.876399E-3	4.629589E-3	2.950495E-3	4.998248E-3	5.956005E-4
10/19/2017  17:27:26.449926	9.759319E-1	4.665125E-3	7.270667E-4	1.681046E-3	1.018064E-3	4.558010E-3	1.425907E-3	5.158362E-4
10/19/2017  17:27:26.450926	9.741257E-1	1.146188E-2	2.697802E-3	5.011958E-3	3.797258E-3	5.505826E-3	3.391985E-3	4.411553E-4
10/19/2017  17:27:26.451926	6.603466E-1	3.386699E-3	2.490454E-3	1.665200E-2	1.565972E-3	2.722192E-3	2.409686E-3	2.530086E-3
10/19/2017  17:27:26.452926	2.080039E-1	2.260516E-2	3.622109E-4	5.191190E-3	5.456265E-3	4.235066E-3	5.572896E-4	4.012344E-4
10/19/2017  17:27:26.453926	1.703390E-1	3.020701E-3	2.398517E-3	3.107373E-3	2.736046E-3	1.328120E-3	9.135433E-3	3.417261E-4
10/19/2017  17:27:26.454926	5.432632E-1	1.668060E-3	5.717838E-4	6.152318E-3	1.069447E-2	5.259809E-3	1.918430E-3	2.889986E-4
10/19/2017  17:27:26.455926	5.726232E-1	5.381661E-4	4.854951E-3	1.465823E-2	1.003651E-2	1.345093E-3	8.958718E-4	1.915975E-3
10/19/2017  17:27:26.456926	3.295734E-1	4.705471E-3	9.228448E-4	8.059590E-3	7.199723E-3	5.789177E-4	6.417358E-3	1.248280E-3
10/19/2017  17:27:26.457926	2.254607E-1	6.189724E-3	1.429562E-3	3.881463E-4	4.692732E-4	8.684612E-3	1.504249E-3	6.940414E-4
10/19/2017  17:27:26.458926	1.775967E-1	2.720388E-3	1.272331E-3	7.899044E-3	2.043781E-3	4.436329E-3	6.201537E-4	1.916683E-3
10/19/2017  17:27:26.459926	2.147419E-1	2.014689E-3	1.148523E-3	1.301907E-2	3.464601E-3	5.016923E-3	4.411825E-3	8.044671E-3
10/19/2017  17:27:26.460926	7.009273E-1	5.284856E-3	6.672757E-4	5.337573E-3	7.327757E-3	8.373637E-4	5.719670E-3	7.767895E-3
10/19/2017  17:27:26.461926	6.103227E-1	7.776788E-3	2.433355E-3	4.767765E-3	3.316429E-3	6.592602E-3	4.990660E-5	1.009371E-2
10/19/2017  17:27:26.462926	1.505560E+0	1.256759E-2	1.409424E-3	9.764816E-3	1.875273E-3	7.377167E-3	1.261613E-4	7.414489E-3
10/19/2017  17:27:26.463926	1.190281E-1	2.506921E-3	1.022392E-2	4.632165E-3	5.517872E-3	9.787758E-3	1.898376E-3	1.333401E-3
10/19/2017  17:27:26.464926	9.357151E-1	2.708707E-3	8.683491E-4	6.643190E-4	5.120146E-3	4.047911E-3	1.062672E-3	1.111759E-3
10/19/2017  17:27:26.465926	4.684044E-1	4.197807E-3	5.625995E-4	4.182081E-3	1.752877E-3	5.214586E-3	5.466452E-3	7.389069E-3
								
10/19/2017  17:27:26.466926	1.778711E-1	3.553615E-3	6.782026E-3	4.368838E-3	7.391913E-4	3.663430E-3	3.058381E-3	1.387887E-3
10/19/2017  17:27:26.467926	6.535133E-1	8.968690E-3	2.039929E-3	3.816094E-4	4.001755E-3	8.426487E-3	8.170723E-3	5.504254E-3
10/19/2017  17:27:26.468926	4.605754E-1	1.632298E-3	6.776467E-3	4.947051E-3	1.420239E-3	2.681463E-3	5.744002E-3	4.136056E-4
10/19/2017  17:27:26.469926	1.535750E-1	3.781101E-3	1.958706E-3	1.080055E-2	9.344477E-4	1.932392E-3	1.555229E-2	1.814382E-3
10/19/2017  17:27:26.470926	3.557011E-1	9.718121E-3	1.679467E-2	8.090671E-3	4.867460E-3	1.641578E-2	3.317526E-4	9.914118E-4
10/19/2017  17:27:26.471926	2.920591E-1	6.230711E-4	5.817536E-3	1.459793E-3	9.847411E-3	4.169681E-3	4.434332E-3	8.192305E-4
10/19/2017  17:27:26.472926	1.255245E+0	1.630991E-3	1.966055E-3	1.230559E-3	7.010415E-3	2.102492E-2	3.644486E-3	3.650895E-3
10/19/2017  17:27:26.473926	1.795732E-1	5.329234E-3	5.234934E-3	3.122186E-3	8.370498E-3	6.306017E-3	5.023077E-3	1.947596E-3
10/19/2017  17:27:26.474926	8.230482E-1	3.069121E-3	3.712750E-3	2.137272E-3	8.275380E-3	3.100846E-4	3.655448E-3	2.725563E-3
10/19/2017  17:27:26.475926	5.222116E-1	1.116300E-2	1.879230E-3	7.984772E-3	2.992436E-3	7.280908E-3	3.556948E-4	7.008324E-3
10/19/2017  17:27:26.476926	5.088358E-2	1.368129E-3	5.829430E-3	7.637543E-3	8.816555E-3	1.201470E-2	4.191748E-3	3.560033E-3
10/19/2017  17:27:26.477926	4.733067E-1	1.149204E-2	2.390559E-4	9.919463E-3	6.100809E-3	4.547003E-3	7.891761E-4	1.952103E-3
10/19/2017  17:27:26.478926	5.836149E-1	7.707455E-3	2.456946E-3	1.865694E-3	4.836336E-3	7.634809E-3	1.719742E-3	2.793109E-3
10/19/2017  17:27:26.479926	5.374237E-1	8.295997E-3	3.955523E-3	2.666318E-3	8.213824E-3	8.535572E-4	5.626912E-3	4.065521E-4
10/19/2017  17:27:26.480926	3.889180E-1	2.568939E-4	1.624800E-3	2.867143E-3	2.687262E-3	6.265827E-3	2.599645E-3	5.508609E-4
10/19/2017  17:27:26.481926	5.055911E-2	4.222773E-3	3.411952E-3	4.592892E-3	6.911576E-3	6.815868E-3	4.086910E-3	7.121234E-3
10/19/2017  17:27:26.482926	2.138994E-1	3.767223E-4	2.154073E-4	1.428318E-2	8.125423E-3	4.245601E-4	7.111719E-3	3.585233E-3
10/19/2017  17:27:26.483926	2.490078E-1	6.769781E-3	6.526390E-3	7.502213E-3	1.172101E-2	8.528330E-3	4.605590E-3	6.820069E-3
10/19/2017  17:27:26.484926	1.619045E-1	3.001021E-3	4.259224E-3	7.359676E-3	3.835568E-3	2.688378E-3	1.258371E-2	4.129221E-3
10/19/2017  17:27:26.485926	1.432412E-1	1.998668E-3	4.105319E-3	6.877439E-3	4.215409E-3	6.338487E-3	7.028758E-4	1.831820E-2
10/19/2017  17:27:26.486926	6.203352E-2	1.182118E-3	7.979155E-4	2.125802E-2	9.853184E-3	3.694303E-5	7.854436E-3	2.555766E-3
10/19/2017  17:27:26.487926	9.233901E-2	5.949507E-3	4.234621E-3	1.919317E-2	2.646837E-3	4.520218E-3	6.634372E-4	1.969085E-2
10/19/2017  17:27:26.488926	1.085585E-1	6.497383E-3	1.515146E-2	2.598801E-2	7.012569E-3	3.286135E-3	1.324058E-2	9.236855E-4
10/19/2017  17:27:26.489926	1.307949E-1	4.223268E-3	9.024655E-3	2.654540E-3	6.770993E-4	8.553139E-3	1.106889E-3	8.338548E-3
10/19/2017  17:27:26.490926	4.405819E-1	9.869191E-4	6.602536E-3	1.357998E-2	8.244794E-3	1.569864E-3	9.827259E-3	4.750256E-4
10/19/2017  17:27:26.491926	3.682027E-1	3.524931E-3	4.035298E-3	7.348268E-3	8.700696E-4	1.219089E-2	1.083004E-2	3.296856E-4
10/19/2017  17:27:26.492926	2.033599E-1	4.209572E-3	7.183365E-3	1.858957E-3	7.423573E-3	2.201417E-3	1.012846E-2	2.373783E-3
10/19/2017  17:27:26.493926	2.995037E-1	5.296568E-3	1.250757E-2	2.000927E-3	3.330118E-3	4.717157E-4	2.666207E-3	5.809401E-4
10/19/2017  17:27:26.494926	1.705874E-1	6.302868E-4	4.535440E-3	4.246243E-3	2.259104E-3	1.957359E-3	7.193407E-3	4.844268E-3
10/19/2017  17:27:26.495926	6.799794E-1	1.134433E-2	2.891811E-3	1.411994E-3	7.974997E-4	1.148121E-2	1.058156E-3	3.108901E-3
10/19/2017  17:27:26.496926	1.554449E-1	1.203529E-2	7.094847E-3	1.521825E-3	7.310765E-3	3.326251E-3	1.223298E-3	2.088522E-3
10/19/2017  17:27:26.497926	2.609583E-1	7.525715E-3	7.612739E-3	3.742023E-3	8.509723E-4	1.571767E-2	2.781220E-3	3.565541E-3
10/19/2017  17:27:26.498926	3.568159E-1	2.272239E-4	3.770159E-3	5.209769E-3	4.748787E-4	6.896255E-4	5.791257E-4	2.033795E-3
								
10/19/2017  17:27:26.499926	2.460636E-1	2.917440E-3	3.289546E-3	2.590646E-3	1.998805E-3	5.834765E-3	7.332898E-3	5.999554E-3
10/19/2017  17:27:26.500926	4.457241E-1	1.376043E-2	6.931622E-3	3.749514E-3	6.241595E-4	2.708051E-3	3.258344E-3	4.360444E-3
10/19/2017  17:27:26.501926	2.229801E-1	3.712495E-3	7.521626E-3	5.904154E-5	3.073588E-4	4.445245E-3	6.289464E-3	5.657017E-3
10/19/2017  17:27:26.502926	1.107384E-2	8.001383E-3	3.278591E-3	1.128307E-2	8.604780E-3	5.505017E-3	2.071216E-3	3.365925E-4
10/19/2017  17:27:26.503926	1.451381E-2	3.374844E-3	4.274148E-3	2.652788E-3	3.805481E-3	1.689110E-3	5.410429E-3	2.484311E-3
10/19/2017  17:27:26.504926	3.436301E-1	4.961374E-3	3.413918E-3	4.716565E-3	8.509020E-3	1.161748E-3	1.946300E-3	3.996359E-4
10/19/2017  17:27:26.505926	2.120374E-1	3.725808E-3	1.256895E-4	1.158582E-3	3.037424E-4	3.189775E-3	1.533739E-3	1.855767E-3
10/19/2017  17:27:26.506926	3.304373E-1	2.653720E-3	8.512666E-3	6.838528E-4	4.467114E-3	4.109876E-3	9.616051E-3	5.545691E-3
10/19/2017  17:27:26.507926	4.511343E-1	6.049628E-3	5.335594E-3	1.875244E-3	3.572923E-3	3.798971E-3	4.398443E-3	7.102833E-4
10/19/2017  17:27:26.508926	8.794332E-3	2.624176E-3	4.331933E-3	3.656165E-3	1.674898E-2	1.448162E-3	5.691844E-3	1.258093E-3
10/19/2017  17:27:26.509926	2.253593E+0	2.332323E-3	5.176673E-3	4.784056E-3	6.218137E-3	7.814159E-3	6.376768E-3	8.213459E-3
10/19/2017  17:27:26.510926	2.123055E+0	8.541743E-3	3.090882E-3	1.051574E-3	2.037644E-2	3.339782E-3	9.247734E-5	6.045574E-3
10/19/2017  17:27:26.511926	1.453385E+0	2.459385E-3	7.267161E-3	6.021758E-3	5.850374E-3	6.526105E-3	6.620836E-3	6.592002E-3
10/19/2017  17:27:26.512926	1.386900E+0	5.932131E-3	6.562740E-4	2.204009E-3	4.918600E-3	4.704348E-3	2.533643E-3	1.107682E-2
10/19/2017  17:27:26.513926	7.871583E-1	4.827775E-3	6.685041E-3	1.230376E-2	6.002172E-3	5.472795E-3	4.845867E-3	5.662032E-3
10/19/2017  17:27:26.514926	7.560076E-1	1.601875E-3	7.390665E-3	1.343722E-2	6.449467E-3	3.883072E-4	8.516247E-4	6.706555E-3
10/19/2017  17:27:26.515926	5.347348E-1	7.651203E-4	7.541264E-3	3.314430E-3	4.271804E-3	2.427613E-3	7.080631E-3	3.621558E-3
10/19/2017  17:27:26.516926	3.273390E-2	2.473667E-4	3.667391E-3	4.116238E-3	4.036218E-3	3.773908E-3	3.871786E-3	2.243116E-3
10/19/2017  17:27:26.517926	4.967217E-1	1.989969E-3	7.274502E-3	1.665617E-2	1.205204E-2	4.544995E-3	9.437120E-3	1.120673E-3
10/19/2017  17:27:26.518926	1.010115E+0	1.201661E-3	7.738025E-3	5.871908E-4	2.180016E-3	1.026291E-2	2.106397E-3	1.272503E-2
10/19/2017  17:27:26.519926	7.411275E-1	7.802206E-3	5.231755E-3	2.423920E-3	5.833628E-3	1.099246E-3	1.466617E-2	5.342567E-4
10/19/2017  17:27:26.520926	3.595444E-1	1.426275E-3	9.800040E-3	8.855555E-3	4.776182E-4	9.214014E-3	5.019339E-3	1.810879E-3
10/19/2017  17:27:26.521926	3.885157E-1	5.385492E-3	7.234695E-3	1.502495E-4	5.031416E-3	2.673485E-3	1.683032E-2	8.825917E-4
10/19/2017  17:27:26.522926	2.612011E-2	5.077443E-3	5.037718E-3	3.695146E-4	2.718117E-3	6.846178E-3	3.509330E-3	4.922014E-3
10/19/2017  17:27:26.523926	7.848748E-2	5.913052E-3	7.620256E-3	2.682483E-3	3.828648E-3	9.369544E-4	9.412810E-3	1.061729E-3
10/19/2017  17:27:26.524926	6.192511E-2	6.720451E-3	7.327642E-3	4.229746E-3	2.070127E-3	9.816894E-3	1.846971E-3	7.521741E-3
10/19/2017  17:27:26.525926	5.110331E-1	6.064531E-3	2.589163E-3	3.501494E-3	1.274923E-2	2.357927E-3	5.543336E-3	1.060157E-3
10/19/2017  17:27:26.526926	6.741642E-1	4.186162E-3	3.171934E-3	6.759211E-3	3.843650E-4	2.186442E-2	2.864886E-3	3.632886E-3
10/19/2017  17:27:26.527926	1.839130E-3	1.250314E-2	7.247476E-3	6.336306E-3	1.072371E-2	3.719840E-4	4.505325E-3	2.514055E-3
10/19/2017  17:27:26.528926	3.329520E-1	4.537646E-3	5.583370E-3	2.522835E-3	3.086634E-3	1.084670E-2	9.745648E-4	5.936205E-4
10/19/2017  17:27:26.529926	1.758343E-1	1.584384E-2	4.481970E-3	6.827870E-3	4.167264E-4	9.763664E-4	5.481848E-4	4.996116E-3
10/19/2017  17:27:26.530926	1.106459E-1	7.026518E-3	3.620344E-3	6.195100E-3	5.117417E-3	5.121533E-3	2.358428E-3	1.483757E-3
10/19/2017  17:27:26.531926	1.763264E-2	3.830650E-3	6.776806E-4	6.314152E-3	1.261649E-2	7.825241E-4	7.840878E-4	7.578956E-3
								
10/19/2017  17:27:26.532926	7.573325E-2	5.737661E-3	7.186462E-3	4.412674E-3	1.106274E-4	1.448416E-3	7.352171E-3	7.811217E-4
10/19/2017  17:27:26.533926	1.322873E-1	4.736547E-3	7.475321E-4	7.617554E-3	8.364311E-3	3.520956E-3	3.121748E-3	2.033448E-3
10/19/2017  17:27:26.534926	1.696436E-1	3.824122E-3	3.937346E-3	1.247399E-3	1.291300E-3	1.666680E-3	8.711994E-3	3.082523E-4
10/19/2017  17:27:26.535926	5.495973E-2	1.163212E-2	3.659548E-3	1.129073E-3	1.043472E-2	5.296765E-3	3.888547E-3	6.256662E-3
10/19/2017  17:27:26.536926	5.991204E-1	2.734882E-3	6.792048E-3	3.294321E-3	5.785893E-3	1.012354E-3	1.057555E-2	4.914003E-3
10/19/2017  17:27:26.537926	2.150733E-1	6.527725E-3	2.095734E-3	1.966797E-3	2.205523E-3	9.881946E-3	1.095381E-3	1.279203E-2
10/19/2017  17:27:26.538926	8.042190E-1	2.516008E-3	1.060316E-2	1.814760E-2	6.948726E-3	5.055992E-3	1.011028E-2	2.791074E-3
10/19/2017  17:27:26.539926	2.766085E-1	1.685030E-3	3.175763E-3	1.002147E-2	6.278678E-3	9.440237E-3	3.866819E-3	8.864414E-3
10/19/2017  17:27:26.540926	3.395621E-1	1.143160E-3	2.148411E-3	6.756592E-3	4.723986E-3	2.162128E-3	5.139191E-3	2.579723E-3
10/19/2017  17:27:26.541926	3.661140E-1	3.121524E-3	8.649692E-4	1.400006E-2	3.392875E-3	3.215867E-3	7.975010E-3	6.551954E-3
10/19/2017  17:27:26.542926	2.898670E-2	7.027584E-5	8.542639E-4	6.150079E-3	2.061796E-3	1.561223E-2	1.169444E-3	2.308837E-3
10/19/2017  17:27:26.543926	6.311197E-1	4.321974E-3	2.983019E-3	1.212641E-2	8.075041E-3	6.402313E-3	1.275179E-3	4.299823E-3
10/19/2017  17:27:26.544926	1.936105E-3	2.832694E-3	4.386682E-3	1.833503E-2	9.524671E-4	1.118843E-2	7.811517E-3	5.235539E-3
10/19/2017  17:27:26.545926	1.782292E+0	1.137272E-2	8.683884E-4	2.543947E-3	9.591623E-3	3.161957E-3	7.232205E-3	1.114412E-3
10/19/2017  17:27:26.546926	7.977416E-1	4.705966E-4	1.036322E-2	1.834369E-3	4.549921E-3	9.063373E-3	6.030935E-3	1.214316E-2
10/19/2017  17:27:26.547926	8.078349E-1	3.284287E-4	1.462469E-3	3.118710E-3	1.014168E-2	4.917255E-5	4.545954E-3	8.737065E-3
10/19/2017  17:27:26.548926	1.605731E+0	2.353928E-3	5.609394E-3	9.880707E-5	5.132203E-3	1.458795E-4	7.592396E-3	2.793754E-3
10/19/2017  17:27:26.549926	3.658462E-1	7.998672E-3	2.963369E-4	4.206337E-3	7.372753E-3	6.699206E-3	1.369184E-3	1.924133E-3
10/19/2017  17:27:26.550926	6.981381E-1	1.164868E-2	2.382083E-3	7.067036E-3	5.222655E-3	2.475777E-3	9.948730E-3	1.304506E-3
10/19/2017  17:27:26.551926	3.364168E-2	1.225199E-2	5.935484E-3	2.072673E-3	5.243920E-3	1.364948E-2	4.889863E-3	2.840314E-3
10/19/2017  17:27:26.552926	2.907006E-1	1.604093E-2	2.593605E-3	4.326529E-3	4.174333E-4	8.832947E-4	5.473000E-3	5.620830E-3
10/19/2017  17:27:26.553926	5.724660E-1	5.674680E-3	4.320834E-3	6.501472E-4	6.360149E-3	1.054423E-2	6.232613E-3	7.840343E-3
10/19/2017  17:27:26.554926	6.718302E-2	1.671754E-2	3.216998E-3	1.927788E-4	2.296660E-3	3.195413E-3	1.838586E-5	1.079087E-2
10/19/2017  17:27:26.555926	9.410633E-1	6.381261E-3	4.210057E-3	8.710555E-4	7.240692E-3	2.253708E-3	6.630232E-3	1.031814E-2
10/19/2017  17:27:26.556926	1.203875E+0	1.633141E-2	3.589444E-3	1.400986E-3	7.288960E-3	6.087567E-3	3.988488E-3	7.751969E-3
10/19/2017  17:27:26.557926	4.342218E-1	3.360488E-3	2.557720E-3	3.958401E-3	6.019604E-3	2.228343E-3	4.980407E-3	9.730240E-4
10/19/2017  17:27:26.558926	8.080793E-2	2.499499E-3	1.680112E-3	1.368862E-3	6.280144E-3	3.808657E-3	1.133720E-3	6.135569E-3
10/19/2017  17:27:26.559926	3.229812E-1	4.102087E-4	5.535402E-3	3.824170E-3	1.831666E-3	1.704021E-3	6.034403E-3	1.933121E-4
10/19/2017  17:27:26.560926	2.835561E-1	1.807472E-3	1.858190E-3	3.308683E-3	1.665314E-2	8.765346E-4	4.467004E-3	8.410397E-3
10/19/2017  17:27:26.561926	5.381849E-1	1.024110E-3	5.609105E-3	1.496407E-3	3.235646E-3	5.327307E-4	3.339953E-3	9.090169E-4
10/19/2017  17:27:26.562926	6.812146E-1	7.364588E-3	9.236287E-3	1.628504E-3	8.550037E-3	4.571761E-3	4.495049E-3	1.192853E-2
10/19/2017  17:27:26.563926	4.114451E-1	5.131318E-3	4.386920E-3	1.128204E-2	7.177447E-3	7.763175E-4	9.997083E-3	4.211952E-3
10/19/2017  17:27:26.564926	4.506849E-1	9.673826E-3	1.012975E-2	1.024146E-2	3.049866E-3	1.281478E-2	2.712665E-3	1.235848E-2
								
10/19/2017  17:27:26.565926	3.279949E-1	2.622079E-3	1.465475E-3	1.452767E-2	5.881720E-5	2.588703E-3	4.840017E-3	2.168102E-3
10/19/2017  17:27:26.566926	7.129938E-1	1.714712E-3	3.271389E-3	6.153622E-3	6.624841E-3	2.763787E-3	7.920349E-3	4.154980E-4
10/19/2017  17:27:26.567926	7.361375E-1	5.531110E-3	9.607418E-5	1.924411E-2	1.945308E-3	1.083872E-2	1.018574E-3	8.540687E-3
10/19/2017  17:27:26.568926	3.043537E-1	1.268417E-2	2.208215E-3	2.557353E-3	8.048471E-3	3.269965E-3	1.174291E-2	1.631654E-3
10/19/2017  17:27:26.569926	5.759372E-1	6.498000E-3	5.934966E-3	1.179799E-2	5.583252E-3	1.329137E-2	9.131599E-3	9.930406E-3
10/19/2017  17:27:26.570926	7.098201E-1	1.355503E-2	2.460693E-3	3.574299E-3	1.378578E-2	2.605212E-3	4.335195E-3	5.517603E-4
10/19/2017  17:27:26.571926	7.033022E-1	5.752701E-3	4.089462E-3	1.587062E-2	5.473177E-3	5.266840E-3	5.805989E-3	1.054336E-2
10/19/2017  17:27:26.572926	5.716257E-1	6.480559E-3	9.396127E-3	7.622036E-3	5.120574E-3	6.431300E-3	2.065999E-3	7.232784E-3
10/19/2017  17:27:26.573926	3.122617E-1	4.067922E-3	8.837943E-3	1.367272E-3	6.054638E-3	2.689505E-3	3.590498E-3	4.179591E-3
10/19/2017  17:27:26.574926	3.117516E-2	2.829054E-3	2.153137E-3	1.136259E-3	4.359076E-3	8.748880E-3	4.123587E-3	7.959819E-3
10/19/2017  17:27:26.575926	7.275134E-2	1.778531E-3	5.922024E-4	3.086902E-3	2.995261E-3	7.188783E-3	1.166123E-2	4.273488E-4
10/19/2017  17:27:26.576926	1.158862E-1	5.575122E-3	1.780728E-3	4.348900E-3	8.965159E-3	5.379788E-3	2.885113E-3	4.252983E-3
10/19/2017  17:27:26.577926	4.657947E-1	8.488533E-3	3.407583E-3	7.196730E-4	4.193264E-3	9.591083E-3	2.476510E-3	4.026704E-3
10/19/2017  17:27:26.578926	3.773511E-1	2.750682E-3	4.410730E-3	1.956577E-3	1.616787E-3	1.347273E-2	2.098129E-3	7.692612E-3
10/19/2017  17:27:26.579926	5.681143E-1	1.504188E-2	3.737766E-3	5.982976E-3	1.423534E-3	8.126850E-3	1.749821E-3	5.685608E-3
10/19/2017  17:27:26.580926	3.574611E-2	4.889389E-3	7.305806E-3	2.050000E-5	5.565972E-3	3.922662E-3	7.263331E-4	4.659740E-3
10/19/2017  17:27:26.581926	3.067857E-1	1.800829E-3	3.070041E-3	4.341088E-3	8.297497E-3	7.369777E-4	1.850205E-3	7.585292E-3
10/19/2017  17:27:26.582926	4.357201E-1	1.694557E-3	2.025882E-3	3.558920E-3	1.202427E-3	4.897038E-3	1.470888E-3	5.008112E-3
10/19/2017  17:27:26.583926	1.383850E+0	1.137483E-2	1.155612E-3	6.025267E-3	4.644673E-3	3.125716E-3	1.131281E-3	1.439180E-2
10/19/2017  17:27:26.584926	9.721252E-1	5.697720E-3	4.420879E-4	4.651815E-3	3.972852E-3	1.278844E-4	8.297826E-4	1.823253E-3
10/19/2017  17:27:26.585926	9.898643E-2	7.008376E-3	2.028559E-3	5.667558E-3	1.589961E-2	6.594629E-3	1.592928E-3	1.163399E-2
10/19/2017  17:27:26.586926	1.121438E+0	1.199454E-2	5.607039E-3	8.981385E-3	1.605793E-2	4.453000E-3	7.515119E-3	5.126459E-3
10/19/2017  17:27:26.587926	6.642873E-1	2.227518E-3	2.248622E-3	4.655010E-3	2.328493E-2	1.655043E-3	1.399022E-3	1.698469E-2
10/19/2017  17:27:26.588926	3.326912E-1	3.746656E-3	8.389880E-3	1.643700E-2	6.898452E-4	3.871068E-3	5.632529E-3	3.135499E-3
10/19/2017  17:27:26.589926	6.461001E-1	3.558568E-4	9.168843E-3	6.105869E-3	7.133035E-3	7.490441E-3	1.972789E-3	1.352273E-2
10/19/2017  17:27:26.590926	5.576375E-1	2.105573E-3	1.950453E-3	4.826329E-3	1.519723E-3	7.496469E-3	2.902225E-3	5.517106E-3
10/19/2017  17:27:26.591926	7.030216E-1	3.780502E-3	5.522294E-3	6.058837E-4	9.816245E-4	3.663821E-3	2.362098E-3	2.649508E-3
10/19/2017  17:27:26.592926	7.198258E-1	1.676800E-3	4.189658E-3	4.466139E-3	5.823701E-4	5.708513E-3	1.740199E-3	6.246001E-3
10/19/2017  17:27:26.593926	1.477988E-1	3.390552E-3	3.442324E-3	5.955686E-3	1.889280E-3	1.158527E-2	3.373268E-3	4.425394E-3
10/19/2017  17:27:26.594926	1.402272E-1	8.471312E-3	2.303773E-3	6.223102E-3	2.918672E-3	6.692537E-3	6.543193E-3	3.299217E-3
10/19/2017  17:27:26.595926	4.264747E-1	7.965413E-3	9.427974E-3	4.771158E-3	1.927292E-3	4.421082E-3	8.767287E-3	1.967581E-3
10/19/2017  17:27:26.596926	4.664397E-1	5.776373E-3	1.570101E-4	1.705869E-3	5.367246E-3	2.544552E-3	6.476308E-3	8.164448E-4
10/19/2017  17:27:26.597926	1.528466E-1	2.194883E-2	8.713937E-3	3.767446E-3	3.875015E-3	1.624668E-2	4.446995E-3	1.520680E-3
								
10/19/2017  17:27:26.598926	3.354048E-1	4.098438E-3	3.914718E-3	3.547136E-3	1.732413E-3	9.945301E-4	7.821122E-3	3.118171E-3
10/19/2017  17:27:26.599926	6.542746E-1	9.741018E-3	2.645865E-4	6.485291E-3	7.663927E-4	7.493664E-4	1.263953E-3	8.852024E-3
10/19/2017  17:27:26.600926	4.827687E-1	2.563409E-3	1.103880E-2	6.937560E-3	2.495790E-3	5.954058E-3	9.413583E-3	2.348494E-3
10/19/2017  17:27:26.601926	3.127073E-1	2.749990E-3	1.435211E-2	6.038679E-3	5.746256E-3	4.037586E-3	4.017954E-3	1.030363E-2
10/19/2017  17:27:26.602926	3.784221E-1	2.161547E-3	3.413293E-3	8.648815E-3	8.961369E-4	1.049374E-2	6.598592E-3	4.194684E-4
10/19/2017  17:27:26.603926	1.517571E-1	1.658376E-3	5.331779E-3	6.753875E-4	7.878779E-3	1.399841E-2	5.380796E-3	6.769823E-3
10/19/2017  17:27:26.604926	4.947974E-2	5.548692E-3	4.376271E-3	7.380367E-3	3.951588E-3	5.761451E-3	2.148193E-3	8.846468E-4
10/19/2017  17:27:26.605926	2.265979E-2	4.859647E-3	1.376814E-3	3.233863E-3	3.144320E-3	2.195743E-2	2.439010E-4	9.507789E-4
10/19/2017  17:27:26.606926	4.610721E-1	8.149689E-4	8.077265E-4	6.562459E-3	8.375917E-3	4.067893E-3	2.334105E-4	5.294985E-3
10/19/2017  17:27:26.607926	4.368367E-1	2.707360E-3	2.305070E-3	6.505080E-3	1.104284E-3	3.263564E-3	3.717241E-3	4.761534E-3
10/19/2017  17:27:26.608926	2.112589E+0	9.009860E-3	3.248173E-3	4.857168E-3	4.239520E-3	8.897019E-3	8.752957E-3	3.140202E-3
10/19/2017  17:27:26.609926	2.882876E-1	2.445978E-4	9.302760E-3	3.012033E-3	7.945146E-3	1.077622E-2	4.413370E-3	2.514594E-3
10/19/2017  17:27:26.610926	1.544365E+0	1.340006E-2	2.967403E-4	4.439415E-3	3.784837E-3	3.510845E-3	3.245689E-3	2.181848E-3
10/19/2017  17:27:26.611926	1.550364E+0	7.962340E-3	2.436031E-3	5.505841E-3	6.175028E-4	7.213310E-3	8.203240E-5	1.861012E-3
10/19/2017  17:27:26.612926	2.564608E+0	3.563160E-3	4.782487E-3	5.663417E-4	2.626929E-3	3.371355E-3	1.085496E-2	3.713133E-3
10/19/2017  17:27:26.613926	6.532701E-1	4.096652E-3	5.444732E-3	3.698467E-3	6.882611E-3	6.494564E-3	1.185443E-3	3.760403E-3
10/19/2017  17:27:26.614926	2.147650E+0	2.959428E-3	2.984854E-3	2.080341E-3	9.095029E-3	1.920880E-3	5.502409E-3	3.373637E-4
10/19/2017  17:27:26.615926	1.094644E+0	2.315812E-3	3.022533E-4	4.029009E-3	7.063890E-3	1.529493E-3	2.689202E-4	1.060736E-5
10/19/2017  17:27:26.616926	1.721781E+0	4.623188E-4	4.853043E-3	9.587614E-4	3.258214E-3	4.016650E-3	8.525874E-3	1.102335E-2
10/19/2017  17:27:26.617926	1.772361E+0	8.352714E-3	7.912246E-3	5.593728E-3	2.540610E-3	5.686688E-3	4.980240E-3	5.490798E-3
10/19/2017  17:27:26.618926	8.952070E-1	1.349122E-3	7.548316E-3	7.798499E-4	1.902151E-3	1.961721E-3	1.566711E-3	1.175283E-2
10/19/2017  17:27:26.619926	5.207864E-1	1.634734E-3	3.240830E-3	2.049870E-2	1.339064E-3	9.927754E-3	5.534897E-3	6.913641E-5
10/19/2017  17:27:26.620926	4.164936E-1	1.238067E-2	8.644187E-3	1.350189E-3	3.010984E-3	3.533331E-3	4.797930E-3	6.395419E-3
10/19/2017  17:27:26.621926	4.767115E-1	6.343081E-3	4.886499E-4	6.067696E-3	2.870997E-4	1.045470E-4	5.534442E-3	2.333288E-3
10/19/2017  17:27:26.622926	8.353591E-1	4.426762E-3	5.976627E-4	6.852306E-3	5.961398E-3	4.541183E-3	5.777481E-3	2.084460E-3
10/19/2017  17:27:26.623926	9.543567E-1	6.658962E-4	5.795169E-3	2.798688E-3	5.018877E-3	9.529958E-4	1.311673E-3	2.465165E-3
10/19/2017  17:27:26.624926	2.728861E-1	4.262345E-3	7.147483E-4	6.227953E-3	6.267613E-3	8.081692E-3	4.200325E-3	8.929190E-4
10/19/2017  17:27:26.625926	6.183596E-2	3.322584E-3	7.590278E-3	4.065676E-3	6.921499E-3	9.166885E-4	1.668224E-2	3.319757E-3
10/19/2017  17:27:26.626926	5.465734E-1	1.814810E-3	1.655699E-2	4.207105E-3	5.985320E-4	3.400129E-3	9.566525E-4	7.115742E-3
10/19/2017  17:27:26.627926	6.004352E-1	1.050300E-3	3.668716E-3	2.940398E-3	2.508149E-3	4.488701E-3	2.825299E-3	1.249598E-3
10/19/2017  17:27:26.628926	7.770499E-1	1.245431E-3	1.161813E-2	2.899698E-3	2.731888E-3	7.825629E-4	2.802276E-4	1.427435E-3
10/19/2017  17:27:26.629926	6.318533E-1	9.309113E-3	4.657152E-4	5.425020E-4	2.060656E-3	2.340575E-3	3.569209E-4	3.178602E-3
10/19/2017  17:27:26.630926	3.101348E-1	1.705639E-3	2.686842E-3	3.293371E-3	5.009185E-3	1.409560E-2	4.721026E-3	1.382499E-4
								
10/19/2017  17:27:26.631926	4.819620E-1	1.253684E-2	2.018584E-3	2.790806E-3	7.699814E-3	6.241106E-3	3.329468E-3	9.013501E-3
10/19/2017  17:27:26.632926	2.485009E-1	2.823518E-3	7.091343E-4	6.192286E-4	5.944386E-4	3.440520E-3	4.312295E-3	8.511738E-3
10/19/2017  17:27:26.633926	4.377909E-2	2.177168E-3	4.797090E-3	1.419945E-2	8.930248E-3	1.215561E-2	1.032003E-2	9.162705E-4
10/19/2017  17:27:26.634926	3.206548E-1	4.874271E-3	9.664170E-3	1.741780E-3	8.925157E-3	1.577855E-2	5.304306E-3	1.204018E-2
10/19/2017  17:27:26.635926	3.124519E-1	5.416057E-3	4.600470E-3	1.596410E-2	4.184611E-3	3.918083E-3	1.443392E-3	2.263622E-3
10/19/2017  17:27:26.636926	1.323314E-1	7.409421E-3	1.040132E-2	6.597845E-3	5.940761E-3	6.724432E-4	7.897018E-3	9.190220E-3
10/19/2017  17:27:26.637926	3.756656E-1	7.681124E-3	1.173150E-3	7.450972E-3	3.271305E-6	5.998084E-3	7.793968E-3	4.041977E-3
10/19/2017  17:27:26.638926	1.032777E+0	3.185483E-3	3.359181E-3	3.406171E-3	2.092467E-3	8.339051E-3	3.453313E-3	9.780165E-5
10/19/2017  17:27:26.639926	4.723156E-1	2.403493E-3	2.138528E-3	2.476150E-3	1.213861E-2	5.529711E-3	2.800003E-3	6.518554E-4
10/19/2017  17:27:26.640926	6.496009E-1	1.061713E-4	1.138921E-3	3.816022E-3	2.876116E-3	4.538816E-3	4.385118E-3	9.861265E-3
10/19/2017  17:27:26.641926	1.697585E-1	4.616990E-3	1.823215E-3	1.928759E-3	1.363071E-2	1.510748E-3	3.178798E-3	1.184249E-3
10/19/2017  17:27:26.642926	8.449910E-1	7.861361E-4	6.061584E-3	4.763543E-3	5.645723E-3	1.461092E-3	8.628626E-3	3.896158E-3
10/19/2017  17:27:26.643926	4.800136E-1	2.445874E-3	1.950099E-3	6.511796E-4	4.687449E-3	5.080880E-3	3.780145E-3	1.237298E-3
10/19/2017  17:27:26.644926	2.648133E-1	8.328285E-4	1.181151E-2	1.106665E-2	1.069444E-3	1.281576E-3	6.392079E-3	3.774051E-3
10/19/2017  17:27:26.645926	7.641674E-1	1.111714E-3	2.597537E-3	1.780796E-3	5.646101E-3	1.542975E-3	4.822428E-3	1.369472E-2
10/19/2017  17:27:26.646926	2.679282E-1	6.225854E-3	2.094873E-3	2.784186E-3	6.136816E-4	1.466428E-2	2.994647E-3	7.228540E-3
10/19/2017  17:27:26.647926	1.575144E+0	1.684479E-3	4.808909E-3	2.743486E-3	1.369623E-3	2.446631E-3	1.488172E-4	4.311598E-3
10/19/2017  17:27:26.648926	1.068324E-1	7.918679E-4	1.280491E-3	6.644589E-3	1.624392E-3	4.481492E-4	4.572190E-3	3.876139E-3
10/19/2017  17:27:26.649926	1.680853E+0	8.704869E-3	2.981490E-3	5.357010E-4	1.573929E-3	3.478757E-4	1.073112E-3	5.617442E-3
10/19/2017  17:27:26.650926	8.051282E-1	7.646529E-3	2.782938E-3	3.873806E-3	6.721647E-4	1.906431E-3	6.486285E-4	2.352555E-3
10/19/2017  17:27:26.651926	1.627529E-1	1.266107E-2	9.025372E-3	8.271147E-3	6.420718E-3	3.028874E-3	1.862823E-3	6.503604E-5
10/19/2017  17:27:26.652926	3.088722E-1	4.923648E-3	1.974978E-3	2.795406E-3	4.753747E-3	4.074869E-5	1.007481E-2	2.551754E-3
10/19/2017  17:27:26.653926	9.386389E-2	3.044599E-3	1.194062E-2	6.314945E-3	5.331841E-3	1.056760E-4	3.903614E-3	1.082693E-2
10/19/2017  17:27:26.654926	3.093103E-1	2.694284E-5	9.562099E-3	6.379796E-3	6.208339E-4	8.797746E-3	9.496138E-3	9.764193E-4
10/19/2017  17:27:26.655926	3.431271E-1	6.449486E-3	9.548622E-3	1.335554E-2	2.710816E-3	2.619780E-3	6.607917E-3	5.130544E-3
10/19/2017  17:27:26.656926	8.420789E-1	2.152315E-3	2.643492E-3	3.222369E-3	1.915862E-3	6.418953E-3	2.289851E-3	5.733114E-3
10/19/2017  17:27:26.657926	7.586464E-1	3.249913E-3	2.454399E-3	9.705759E-5	9.309405E-4	6.253252E-3	6.486863E-3	2.748042E-3
10/19/2017  17:27:26.658926	1.679260E-2	7.041715E-3	2.619780E-3	8.112802E-6	1.362826E-3	1.690666E-5	6.169522E-4	1.091110E-2
10/19/2017  17:27:26.659926	3.753304E-1	7.321229E-3	3.340690E-4	9.566807E-5	1.404826E-3	1.533265E-2	7.003829E-4	3.331082E-3
10/19/2017  17:27:26.660926	7.433738E-2	1.655521E-2	4.019491E-3	2.327540E-3	3.127145E-3	4.588983E-3	7.485498E-4	2.316636E-3
10/19/2017  17:27:26.661926	9.650062E-1	2.744615E-3	1.692407E-3	9.124631E-3	2.444418E-3	2.814973E-3	1.391034E-3	1.063528E-2
10/19/2017  17:27:26.662926	9.784476E-2	9.153963E-4	3.597286E-3	6.836219E-3	6.598545E-3	1.491823E-3	5.782606E-3	1.116752E-3
10/19/2017  17:27:26.663926	7.208337E-1	3.582392E-3	6.982835E-3	7.633689E-4	2.266890E-4	1.254087E-2	2.061503E-3	1.384817E-2
								
10/19/2017  17:27:26.664926	9.366253E-1	1.188048E-2	6.020221E-3	1.581392E-2	1.385179E-2	4.837587E-3	3.595989E-3	5.081801E-3
10/19/2017  17:27:26.665926	4.180574E-1	2.081205E-3	6.471681E-3	6.499260E-3	7.918456E-3	1.228932E-3	8.430620E-3	5.852082E-3
10/19/2017  17:27:26.666926	7.760212E-1	9.281333E-4	4.321355E-3	3.615297E-3	7.601628E-3	3.597246E-3	2.705758E-3	5.784431E-4
10/19/2017  17:27:26.667926	2.087639E-1	3.405666E-3	3.284068E-3	1.069499E-4	3.838152E-3	9.073861E-3	1.880328E-4	3.293916E-3
10/19/2017  17:27:26.668926	6.281851E-1	4.446247E-3	2.400108E-3	4.988383E-3	1.411685E-2	4.687333E-3	4.205464E-3	1.378855E-2
10/19/2017  17:27:26.669926	5.419794E-1	5.599852E-3	5.974041E-3	3.301909E-4	5.741383E-3	1.009165E-2	2.845954E-3	3.011507E-3
10/19/2017  17:27:26.670926	5.202241E-1	4.014538E-3	4.702043E-3	2.038754E-4	4.904938E-3	2.723811E-3	4.767162E-3	4.178526E-3
10/19/2017  17:27:26.671926	3.775299E-1	1.650384E-3	5.714424E-3	1.019306E-2	8.045982E-3	7.054376E-3	5.742027E-3	3.819586E-3
10/19/2017  17:27:26.672926	2.497068E-1	1.365453E-3	1.860237E-3	6.603540E-3	3.042648E-3	1.315809E-3	2.444375E-3	2.020787E-2
10/19/2017  17:27:26.673926	2.386999E-1	9.755510E-3	1.018679E-3	3.147004E-3	7.837482E-5	7.840611E-3	2.560969E-3	3.497863E-3
10/19/2017  17:27:26.674926	4.734979E-2	2.397953E-3	3.066167E-3	9.475496E-3	4.435532E-3	5.356035E-3	6.900480E-3	3.216539E-3
10/19/2017  17:27:26.675926	2.657462E-3	7.352295E-3	6.572450E-3	1.169096E-2	5.199227E-3	8.142410E-3	4.414573E-4	7.253103E-3
10/19/2017  17:27:26.676926	6.887724E-2	1.620877E-2	1.490494E-4	2.145236E-4	1.008200E-3	1.117592E-3	2.096135E-3	3.400342E-3
10/19/2017  17:27:26.677926	6.560884E-2	6.255060E-3	6.664845E-3	1.995277E-3	9.796258E-3	4.035917E-3	6.938823E-3	4.985046E-4
10/19/2017  17:27:26.678926	9.314890E-2	7.091988E-3	1.032162E-2	9.938769E-3	9.197946E-3	3.284152E-3	8.485675E-3	8.068447E-3
10/19/2017  17:27:26.679926	2.293675E-1	9.274733E-4	4.626730E-4	2.174614E-3	6.826993E-3	9.093480E-3	1.857039E-4	3.034849E-3
10/19/2017  17:27:26.680926	3.015204E-1	3.535714E-3	2.209959E-4	3.611478E-3	7.265953E-3	2.252560E-3	6.404907E-3	2.951713E-3
10/19/2017  17:27:26.681926	4.007733E-1	2.071087E-3	5.068102E-3	1.202989E-2	1.402262E-3	6.017060E-3	4.545299E-3	9.352407E-3
10/19/2017  17:27:26.682926	1.467638E-1	1.723983E-3	4.041781E-3	1.835156E-3	7.587480E-3	8.449949E-3	3.624979E-3	1.535305E-3
10/19/2017  17:27:26.683926	4.827445E-1	3.574343E-3	9.612768E-3	3.436612E-3	5.190431E-3	3.171202E-3	9.287198E-3	5.832960E-3
10/19/2017  17:27:26.684926	3.414614E-1	3.881376E-3	2.370635E-3	4.960568E-3	3.304538E-3	1.791423E-2	2.138802E-3	2.253536E-3
10/19/2017  17:27:26.685926	1.173942E+0	9.059777E-3	8.340983E-4	5.859554E-3	2.824226E-3	1.804424E-3	1.172550E-3	4.271586E-4
10/19/2017  17:27:26.686926	4.541537E-1	2.777340E-3	7.469487E-3	6.716844E-3	8.874305E-3	1.639515E-2	8.253884E-3	6.659436E-3
10/19/2017  17:27:26.687926	1.000318E+0	2.594184E-3	3.296357E-3	3.332701E-4	4.476306E-3	7.172177E-3	1.748585E-3	1.291269E-2
10/19/2017  17:27:26.688926	2.411340E-1	2.312675E-4	4.170014E-3	4.301702E-3	9.003240E-4	4.153519E-3	7.317965E-3	4.821225E-3
10/19/2017  17:27:26.689926	7.988639E-2	1.438617E-3	7.183354E-3	1.630464E-2	6.926614E-3	1.000595E-2	2.695683E-3	9.904144E-3
10/19/2017  17:27:26.690926	1.877062E-1	8.263226E-3	6.130899E-3	4.425765E-3	4.228393E-3	7.302379E-3	7.277787E-3	7.135795E-3
10/19/2017  17:27:26.691926	7.146758E-1	2.082814E-4	4.677763E-3	8.741280E-3	8.788917E-4	1.475194E-3	1.200724E-2	3.818878E-3
10/19/2017  17:27:26.692926	1.735907E-1	1.965842E-3	8.838331E-4	4.944094E-3	4.170577E-3	7.761395E-3	4.558220E-3	5.061996E-3
10/19/2017  17:27:26.693926	5.139255E-1	3.354057E-3	5.175021E-4	8.522117E-3	1.845741E-2	1.004653E-3	3.346667E-3	1.395007E-3
10/19/2017  17:27:26.694926	7.267421E-1	9.205139E-3	8.854224E-3	2.095868E-3	6.747022E-3	9.426244E-3	2.321576E-3	5.653919E-3
10/19/2017  17:27:26.695926	1.713914E+0	1.082486E-2	5.022120E-3	9.100883E-3	2.999566E-3	4.238283E-3	5.007611E-3	6.171989E-3
10/19/2017  17:27:26.696926	6.556393E-1	5.831232E-3	1.869643E-3	2.718918E-3	4.129232E-3	6.224319E-3	1.429847E-3	4.536344E-3
								
10/19/2017  17:27:26.697926	1.892640E+0	4.676702E-3	1.705738E-3	8.979042E-3	1.784396E-3	4.892479E-3	9.378657E-4	1.254296E-3
10/19/2017  17:27:26.698926	1.073907E+0	3.683585E-3	6.252136E-4	2.283026E-3	6.005237E-3	1.583805E-3	3.788713E-3	9.890580E-4
10/19/2017  17:27:26.699926	1.851222E-1	3.639009E-3	6.570479E-3	1.662183E-3	4.471027E-3	5.167853E-3	7.025957E-3	5.731343E-3
10/19/2017  17:27:26.700926	2.806519E-1	4.388286E-3	4.608030E-3	1.400833E-2	5.485338E-3	1.128264E-3	1.769547E-3	4.875038E-4
10/19/2017  17:27:26.701926	3.014753E-2	1.807475E-3	1.464936E-2	3.434728E-3	3.736639E-3	1.875841E-3	8.048257E-3	2.797006E-3
10/19/2017  17:27:26.702926	1.147865E-1	8.410343E-3	3.860078E-4	1.369695E-2	1.111478E-4	1.838091E-3	2.897339E-3	6.496075E-3
10/19/2017  17:27:26.703926	1.165759E+0	4.191070E-3	6.902169E-3	9.639440E-3	2.545440E-3	1.255653E-2	2.018274E-3	2.371000E-3
10/19/2017  17:27:26.704926	7.066035E-1	9.810382E-3	4.929252E-4	6.755055E-3	8.705876E-3	6.199656E-3	7.759272E-3	2.901304E-3
10/19/2017  17:27:26.705926	1.238954E-1	6.455642E-3	1.494265E-2	5.367184E-3	6.264068E-3	1.079215E-2	3.595651E-3	1.241663E-4
10/19/2017  17:27:26.706926	3.787412E-1	7.119545E-3	3.741344E-3	2.018831E-3	8.782745E-3	5.852855E-3	7.328983E-3	3.083366E-4
10/19/2017  17:27:26.707926	3.679671E-1	1.016350E-2	6.730121E-3	4.760994E-3	1.057303E-2	4.657052E-3	7.538524E-3	6.017474E-3
10/19/2017  17:27:26.708926	1.933101E-1	5.449903E-3	9.713887E-3	7.211060E-3	5.959403E-3	5.759561E-3	5.619486E-3	4.859342E-3
10/19/2017  17:27:26.709926	8.580085E-3	1.808855E-3	4.977070E-3	8.718886E-3	8.972020E-3	1.912930E-4	4.068701E-3	8.199554E-3
10/19/2017  17:27:26.710926	8.917138E-1	1.248462E-3	2.972162E-3	1.122809E-2	8.259492E-5	4.484573E-3	6.098836E-4	3.774785E-3
10/19/2017  17:27:26.711926	8.298187E-1	2.923260E-3	4.235063E-3	4.014225E-4	6.611107E-3	1.169526E-2	8.389185E-3	8.221749E-3
10/19/2017  17:27:26.712926	4.208527E-2	1.546475E-2	1.549541E-3	4.417507E-3	1.974248E-3	5.262653E-3	6.297823E-4	3.524438E-3
10/19/2017  17:27:26.713926	3.653409E-1	6.534002E-3	3.510874E-3	5.883555E-3	3.747619E-3	1.511286E-2	6.482520E-4	6.526338E-3
10/19/2017  17:27:26.714926	4.590928E-1	1.344906E-2	9.098075E-3	8.735147E-3	2.686339E-3	2.235858E-3	4.972829E-3	1.620567E-3
10/19/2017  17:27:26.715926	4.548078E-1	8.124520E-3	4.053868E-3	2.580054E-3	6.108811E-3	6.020897E-3	1.399487E-3	5.555494E-3
10/19/2017  17:27:26.716926	3.715394E-1	3.904688E-3	8.442833E-3	1.721415E-4	1.121824E-2	4.167894E-3	3.394080E-3	8.315427E-3
10/19/2017  17:27:26.717926	1.483185E-2	5.764608E-3	1.968048E-3	8.672153E-3	5.897273E-3	5.997789E-3	6.683844E-3	9.529704E-3
10/19/2017  17:27:26.718926	4.668450E-1	1.640408E-3	1.546790E-3	3.839507E-3	1.768466E-2	8.725771E-3	8.653597E-5	1.116975E-2
10/19/2017  17:27:26.719926	1.132200E+0	2.865943E-3	5.302245E-3	8.795836E-3	1.377989E-3	1.623402E-3	9.027087E-3	3.293955E-3
10/19/2017  17:27:26.720926	1.578588E+0	7.595072E-4	3.498286E-3	5.379337E-3	3.312014E-4	7.938046E-3	2.254842E-3	7.120782E-3
10/19/2017  17:27:26.721926	2.470261E-1	9.876688E-3	1.536025E-4	8.925171E-3	4.833590E-3	3.709866E-3	5.641240E-4	3.092286E-3
10/19/2017  17:27:26.722926	9.384315E-5	9.238606E-4	1.361538E-2	2.466200E-3	1.055521E-2	3.799991E-3	1.335711E-2	2.112101E-3
10/19/2017  17:27:26.723926	3.574028E-1	9.346623E-4	3.220265E-3	1.524362E-2	3.401438E-3	1.783295E-3	6.124766E-3	3.609994E-3
10/19/2017  17:27:26.724926	2.058485E-1	3.077731E-3	8.606627E-5	9.472007E-3	2.421476E-3	2.884873E-3	4.812805E-3	6.675459E-3
10/19/2017  17:27:26.725926	8.973143E-1	1.737297E-4	4.330220E-3	7.674703E-3	3.753922E-3	1.763999E-3	1.514153E-3	4.403611E-3
10/19/2017  17:27:26.726926	1.326981E+0	1.102948E-2	1.340967E-3	1.279068E-2	1.979392E-3	5.643404E-3	1.238400E-3	1.005368E-2
10/19/2017  17:27:26.727926	9.525680E-1	3.267233E-3	7.574034E-3	1.618121E-2	1.724042E-3	8.672595E-3	3.145426E-3	7.121626E-4
10/19/2017  17:27:26.728926	6.561015E-1	9.133321E-3	4.969764E-3	3.741329E-3	6.737824E-4	1.267151E-3	5.343575E-5	1.038388E-2
10/19/2017  17:27:26.729926	6.444163E-1	2.159803E-3	5.837926E-3	2.840187E-3	4.149521E-3	8.508950E-3	8.660874E-3	3.688301E-3
								
10/19/2017  17:27:26.730926	1.391950E-1	1.160308E-2	1.125851E-2	4.381895E-3	5.528663E-3	4.419705E-3	7.044565E-3	7.126477E-4
10/19/2017  17:27:26.731926	1.149807E+0	2.775183E-3	2.600475E-3	2.856062E-3	2.928334E-3	5.618825E-3	5.091012E-3	7.001826E-4
10/19/2017  17:27:26.732926	1.810981E+0	2.077940E-3	1.676374E-2	5.962261E-4	2.424077E-3	6.231010E-3	7.355471E-3	6.596673E-4
