Parameters: 	Upper Cutoff:  500	Lower Cutoff: 20	Sample Rate (Hz): 1000	Frames Per Second30	Display Window Size (S)100	MVC Window Size (s): 100	Seconds To Acquire MVC: 3	Display Channel: 0
waveform	[0]	[1]	[2]	[3]	[4]	[5]	[6]	[7]
t0	10/19/2017  17:25:21.174601	10/19/2017  17:25:21.174601	10/19/2017  17:25:21.174601	10/19/2017  17:25:21.174601	10/19/2017  17:25:21.174601	10/19/2017  17:25:21.174601	10/19/2017  17:25:21.174601	10/19/2017  17:25:21.174601
delta t	0.001000	0.001000	0.001000	0.001000	0.001000	0.001000	0.001000	0.001000

time	Y[0]	Y[1]	Y[2]	Y[3]	Y[4]	Y[5]	Y[6]	Y[7]
10/19/2017  17:25:21.170424	2.290585E-1	5.026159E-3	3.284111E-4	1.858712E-2	1.673243E-3	8.488407E-3	1.168035E-2	5.189375E-3
10/19/2017  17:25:21.171424	5.376336E-2	1.052372E-3	6.394230E-3	8.199356E-4	5.661195E-3	5.950162E-3	4.749052E-3	3.235860E-3
10/19/2017  17:25:21.172424	4.307875E-3	3.224918E-3	1.117757E-2	3.150102E-3	8.607203E-5	2.656977E-3	1.636723E-2	5.538225E-4
10/19/2017  17:25:21.173424	3.020448E-2	8.987220E-3	1.759967E-3	3.926145E-4	4.178975E-3	6.613030E-3	6.265255E-3	7.259014E-3
10/19/2017  17:25:21.174424	1.364329E-2	6.597184E-3	5.087292E-3	5.722450E-4	3.936830E-3	4.861609E-3	1.370383E-2	7.446773E-3
10/19/2017  17:25:21.175424	2.803323E-1	1.913094E-3	7.514449E-3	2.856304E-3	7.653961E-3	7.418695E-3	3.347458E-3	7.422787E-4
10/19/2017  17:25:21.176424	3.089602E-1	6.585793E-4	5.337528E-3	2.222763E-3	4.348022E-4	1.351267E-3	2.193888E-3	2.002391E-3
10/19/2017  17:25:21.177424	1.766105E-1	8.333875E-3	7.854226E-3	3.826604E-3	9.197948E-3	1.015467E-3	3.083128E-3	1.040365E-2
10/19/2017  17:25:21.178424	1.699338E-2	5.796986E-3	5.853287E-3	2.632962E-3	3.689112E-3	4.984233E-4	2.980983E-4	8.810509E-4
10/19/2017  17:25:21.179424	4.284576E-2	2.796615E-3	9.022009E-3	5.356687E-4	8.901769E-3	8.717479E-3	4.776520E-3	8.181727E-3
10/19/2017  17:25:21.180424	1.512060E-1	1.536371E-2	4.426377E-3	7.147424E-3	6.793509E-3	1.170951E-2	5.637757E-3	5.688819E-3
10/19/2017  17:25:21.181424	1.393022E-1	2.201201E-3	1.258997E-3	7.981933E-4	2.820715E-3	1.728004E-2	4.797789E-3	3.593245E-3
10/19/2017  17:25:21.182424	1.235366E-1	1.478161E-2	3.157131E-3	4.834306E-3	1.315126E-2	3.274166E-3	3.470786E-3	2.459938E-3
10/19/2017  17:25:21.183424	2.314079E-2	3.734026E-3	4.392750E-3	9.772192E-3	2.248577E-4	7.189093E-3	6.664047E-3	1.324827E-2
10/19/2017  17:25:21.184424	3.798284E-1	4.432532E-3	3.559466E-3	1.119635E-2	4.816426E-3	9.717386E-3	4.009850E-6	3.174711E-3
10/19/2017  17:25:21.185424	3.817793E-1	3.675070E-3	9.124360E-3	5.623353E-3	8.268167E-3	1.856024E-3	1.132410E-2	8.539993E-3
10/19/2017  17:25:21.186424	1.991471E-2	2.986442E-3	2.710876E-4	2.417977E-3	1.255234E-2	6.760004E-4	1.716502E-3	6.980760E-4
10/19/2017  17:25:21.187424	2.237088E-1	6.681560E-3	2.750449E-3	6.529882E-3	2.280243E-3	8.336711E-3	9.685808E-4	8.710866E-4
10/19/2017  17:25:21.188424	9.737094E-2	4.707649E-3	4.451744E-3	9.222526E-3	2.372892E-2	7.961916E-3	2.864046E-3	5.492344E-3
10/19/2017  17:25:21.189424	1.181121E-1	5.600216E-3	9.779604E-4	6.415339E-3	3.465337E-3	1.349445E-3	1.938238E-3	1.180200E-2
10/19/2017  17:25:21.190424	8.533694E-2	4.167428E-3	5.007539E-4	1.321871E-2	4.849914E-3	5.891149E-3	1.170676E-3	1.726096E-2
10/19/2017  17:25:21.191424	1.521256E-1	5.120040E-3	8.745881E-3	1.164956E-2	8.507855E-3	2.459860E-3	1.240073E-2	5.250020E-3
10/19/2017  17:25:21.192424	1.157726E-2	9.074161E-4	8.853783E-4	5.166996E-3	8.616870E-3	9.516037E-5	6.493264E-3	1.020560E-2
10/19/2017  17:25:21.193424	2.844348E-1	3.059141E-3	7.846936E-3	6.678076E-3	3.964350E-3	4.569177E-3	2.421178E-3	5.840418E-3
10/19/2017  17:25:21.194424	3.057334E-1	8.788553E-3	2.566649E-3	6.755263E-3	1.768437E-3	3.060797E-3	4.472312E-3	1.327581E-2
10/19/2017  17:25:21.195424	1.350719E-1	1.695053E-3	3.053597E-3	2.265118E-2	6.311546E-4	6.243277E-3	2.839614E-3	7.239900E-3
10/19/2017  17:25:21.196424	4.041772E-1	5.695426E-3	1.348049E-2	3.676773E-3	8.533543E-3	4.188805E-4	9.333172E-3	3.945985E-3
10/19/2017  17:25:21.197424	2.624722E-1	8.636830E-3	3.098044E-3	2.251470E-2	1.788126E-3	9.256158E-4	1.122802E-2	9.701090E-3
10/19/2017  17:25:21.198424	4.318101E-2	2.582231E-3	1.928690E-3	6.003417E-3	9.780210E-4	1.208599E-2	3.038932E-3	4.778080E-3
10/19/2017  17:25:21.199424	2.744203E-1	1.909857E-3	7.684582E-3	4.697651E-3	5.080744E-3	6.632127E-3	1.535970E-2	9.954982E-4
10/19/2017  17:25:21.200424	3.523068E-1	1.212319E-2	3.488966E-3	1.399995E-3	1.288744E-3	6.257163E-3	1.940323E-3	3.520658E-4
10/19/2017  17:25:21.201424	3.066243E-1	2.703466E-3	3.192564E-4	7.607210E-3	3.701105E-3	4.483471E-3	7.735156E-4	8.798770E-3
10/19/2017  17:25:21.202424	2.373063E-1	3.646466E-4	1.974174E-3	7.390826E-3	9.320598E-3	5.628773E-3	1.094541E-2	4.210514E-3
								
10/19/2017  17:25:21.203424	4.286884E-2	7.355233E-3	5.686871E-3	1.795253E-3	2.126108E-3	3.086689E-4	8.126183E-3	1.452788E-3
10/19/2017  17:25:21.204424	2.097406E-1	1.300580E-3	3.754324E-3	1.911267E-3	1.156401E-3	1.885946E-3	5.716271E-3	9.795240E-3
10/19/2017  17:25:21.205424	5.887674E-2	1.201515E-2	8.654899E-3	8.447937E-3	3.950159E-3	5.512192E-3	2.793201E-3	4.549642E-3
10/19/2017  17:25:21.206424	5.600582E-1	2.412016E-3	2.113346E-3	4.165238E-3	7.468255E-3	1.645983E-2	4.524008E-3	3.794673E-3
10/19/2017  17:25:21.207424	5.659657E-1	8.398366E-3	8.121316E-3	9.039387E-4	9.656446E-3	8.888162E-3	3.438945E-3	1.118979E-3
10/19/2017  17:25:21.208424	1.607732E-1	6.229803E-4	1.270072E-3	1.012388E-2	2.093547E-3	3.102349E-3	2.517932E-3	1.270418E-2
10/19/2017  17:25:21.209424	4.924100E-3	7.100871E-3	5.907506E-3	2.454388E-3	5.679864E-3	1.184165E-2	9.043135E-3	2.663201E-3
10/19/2017  17:25:21.210424	1.308761E-1	1.517383E-3	6.502693E-3	7.551949E-3	4.588754E-3	1.333874E-2	6.142216E-3	3.881414E-4
10/19/2017  17:25:21.211424	3.472730E-1	1.414589E-2	1.450968E-4	5.810977E-3	7.963584E-3	1.293557E-3	2.757029E-3	2.590725E-3
10/19/2017  17:25:21.212424	1.816331E-1	7.645193E-3	8.781866E-3	2.144729E-3	1.390512E-3	7.466413E-3	2.630648E-3	6.234316E-3
10/19/2017  17:25:21.213424	2.068898E-1	1.428526E-3	2.465195E-3	2.756986E-3	1.389979E-2	3.545215E-3	6.791199E-3	6.412280E-3
10/19/2017  17:25:21.214424	2.036777E-1	1.215462E-3	2.500233E-3	2.478347E-3	1.022496E-2	4.845831E-3	5.197675E-3	6.733512E-3
10/19/2017  17:25:21.215424	2.288147E-1	3.305148E-3	5.272198E-4	8.990329E-3	5.536404E-3	3.393687E-3	2.648367E-3	9.441921E-3
10/19/2017  17:25:21.216424	1.255387E-1	4.394062E-3	7.015189E-3	2.618489E-3	4.567967E-3	6.939603E-6	1.695444E-3	1.595943E-4
10/19/2017  17:25:21.217424	2.830918E-1	1.109046E-3	4.882394E-3	4.400968E-3	3.527117E-3	2.468001E-3	9.148716E-4	8.717282E-3
10/19/2017  17:25:21.218424	8.525855E-2	7.321821E-3	3.385687E-3	3.332716E-3	2.719906E-3	8.486472E-3	6.184803E-3	3.926234E-3
10/19/2017  17:25:21.219424	8.760236E-3	7.116861E-3	4.898034E-3	2.403959E-3	8.509075E-3	5.964170E-3	1.102359E-2	1.051236E-2
10/19/2017  17:25:21.220424	1.017349E-1	6.366601E-3	5.779319E-3	8.084940E-3	3.611060E-3	2.622864E-3	3.287026E-3	1.157736E-3
10/19/2017  17:25:21.221424	1.421882E-1	9.369520E-3	1.823274E-3	1.200342E-2	4.457102E-3	8.714496E-3	5.393668E-4	3.426103E-3
10/19/2017  17:25:21.222424	1.361392E-1	2.498652E-3	1.132124E-3	6.511972E-3	7.946641E-3	4.071434E-3	5.049689E-3	6.543914E-3
10/19/2017  17:25:21.223424	9.122059E-2	3.984022E-4	9.712889E-3	8.541783E-3	1.463158E-3	5.186413E-4	8.094765E-3	2.352978E-3
10/19/2017  17:25:21.224424	1.374393E-1	1.852198E-3	3.988303E-3	2.618337E-3	3.268451E-3	6.536146E-3	1.286664E-3	8.710448E-3
10/19/2017  17:25:21.225424	1.278285E-3	3.089941E-3	7.199613E-3	6.730997E-3	6.517661E-3	1.106987E-2	8.008068E-3	4.291837E-3
10/19/2017  17:25:21.226424	6.403538E-1	4.286442E-3	7.005891E-3	1.639374E-4	2.037596E-3	8.171982E-3	7.665552E-4	3.082809E-3
10/19/2017  17:25:21.227424	5.909913E-1	7.641087E-4	2.141775E-3	6.776262E-3	1.330862E-3	5.078165E-3	5.869559E-4	2.251849E-3
10/19/2017  17:25:21.228424	1.340248E-1	3.979019E-3	4.371450E-3	5.013028E-3	5.911542E-3	7.226379E-4	4.397481E-4	4.782326E-4
10/19/2017  17:25:21.229424	2.239386E-1	7.431038E-4	2.812616E-3	5.120322E-3	1.330383E-2	2.713606E-3	4.636007E-3	4.058454E-3
10/19/2017  17:25:21.230424	1.486355E-1	5.348183E-4	5.150154E-3	7.852923E-3	3.624215E-3	4.021384E-3	1.190114E-3	3.657047E-3
10/19/2017  17:25:21.231424	5.448077E-1	6.829468E-3	2.266214E-3	7.824089E-4	9.179639E-3	3.872119E-3	7.499061E-3	4.135542E-4
10/19/2017  17:25:21.232424	9.715888E-2	2.325895E-4	9.825837E-4	8.721605E-3	2.388759E-3	9.394401E-3	7.373958E-3	6.262789E-3
10/19/2017  17:25:21.233424	3.042921E-1	2.408817E-3	6.514050E-3	4.404697E-3	6.296392E-3	8.609873E-3	3.884185E-3	6.493409E-3
10/19/2017  17:25:21.234424	7.316976E-1	1.303047E-2	1.164984E-2	1.051366E-3	4.490190E-3	7.512783E-3	7.546939E-3	2.434906E-3
10/19/2017  17:25:21.235424	2.131562E-1	4.574415E-3	1.852998E-3	2.764088E-3	1.371534E-3	2.099107E-2	3.392450E-3	6.116257E-4
								
10/19/2017  17:25:21.236424	1.001313E+0	1.712255E-2	9.991266E-4	4.785584E-3	3.088889E-3	4.809802E-3	1.907367E-3	6.361827E-4
10/19/2017  17:25:21.237424	5.391220E-1	1.666365E-3	3.043956E-3	1.001185E-2	9.029714E-3	1.241175E-2	5.634110E-3	2.799109E-3
10/19/2017  17:25:21.238424	7.714493E-2	3.410667E-3	2.071742E-3	1.828843E-3	4.264566E-3	2.209224E-3	5.900199E-4	1.071212E-2
10/19/2017  17:25:21.239424	2.639628E-1	4.495177E-3	3.469608E-3	4.809285E-3	6.354216E-4	1.209926E-3	7.586061E-4	2.945164E-3
10/19/2017  17:25:21.240424	3.244800E-1	7.189995E-4	6.431543E-3	1.485001E-3	2.285900E-3	1.760971E-3	9.503683E-3	9.309802E-3
10/19/2017  17:25:21.241424	3.139079E-1	7.823948E-5	3.880060E-3	1.681066E-2	1.001094E-3	8.173664E-3	4.581028E-3	6.953416E-3
10/19/2017  17:25:21.242424	5.037058E-1	6.913865E-3	3.906376E-4	3.333975E-3	7.448412E-3	5.956184E-3	5.671841E-3	6.266773E-4
10/19/2017  17:25:21.243424	2.988563E-1	5.194244E-3	7.874867E-3	6.418774E-3	1.283820E-2	8.388628E-3	6.344714E-3	3.488312E-4
10/19/2017  17:25:21.244424	1.480001E-1	2.743460E-3	1.299600E-2	2.499798E-3	2.258133E-2	7.561662E-3	2.221785E-3	1.185020E-4
10/19/2017  17:25:21.245424	4.384012E-1	3.107374E-4	5.339854E-3	6.700333E-3	6.081132E-3	5.798758E-3	1.289170E-3	6.544349E-3
10/19/2017  17:25:21.246424	3.233752E-1	1.806491E-3	2.564721E-3	9.453219E-3	5.349827E-4	1.076390E-2	2.687414E-3	1.054136E-2
10/19/2017  17:25:21.247424	5.163897E-2	3.228597E-3	1.461068E-2	1.532274E-2	9.548936E-3	8.818348E-4	1.157139E-2	3.555887E-3
10/19/2017  17:25:21.248424	2.630959E-1	2.440534E-4	1.187061E-3	4.971511E-3	4.811487E-3	4.152428E-3	4.064734E-3	1.141135E-2
10/19/2017  17:25:21.249424	3.502195E-1	2.772410E-3	6.102506E-3	1.511401E-2	3.148449E-3	5.459907E-3	1.540433E-3	7.204344E-3
10/19/2017  17:25:21.250424	4.169790E-1	8.816529E-3	1.374808E-3	6.640295E-3	2.248691E-3	1.845572E-3	3.104293E-3	5.179648E-3
10/19/2017  17:25:21.251424	2.852584E-1	4.139014E-3	6.315860E-3	1.489370E-2	6.728273E-4	1.313341E-3	1.964350E-3	3.004908E-3
10/19/2017  17:25:21.252424	6.031951E-2	2.720466E-3	1.160606E-2	2.699928E-3	5.925028E-4	1.300148E-3	3.300635E-3	6.620008E-3
10/19/2017  17:25:21.253424	3.469615E-2	4.937046E-3	6.247529E-3	1.591564E-4	8.138193E-3	1.182835E-3	1.653027E-3	2.833266E-4
10/19/2017  17:25:21.254424	8.655606E-2	1.241458E-2	6.572366E-3	1.643788E-3	5.369432E-3	1.413679E-3	9.995909E-3	6.483590E-3
10/19/2017  17:25:21.255424	9.879963E-2	4.383653E-5	4.221920E-4	4.988168E-3	5.582550E-3	3.230906E-3	1.146925E-2	4.140893E-3
10/19/2017  17:25:21.256424	2.491103E-2	6.884911E-3	1.479629E-2	8.008896E-3	6.780018E-3	7.682628E-5	7.443855E-3	6.428411E-3
10/19/2017  17:25:21.257424	7.788672E-1	5.755048E-3	9.540604E-3	8.407499E-3	5.201944E-3	2.201596E-3	7.811618E-3	8.477853E-4
10/19/2017  17:25:21.258424	5.556335E-1	9.168310E-3	1.374179E-2	4.003082E-3	1.672423E-3	4.893671E-3	5.566852E-3	5.467387E-3
10/19/2017  17:25:21.259424	1.223834E-1	2.233063E-3	3.273007E-3	4.955789E-3	9.518134E-4	7.496790E-3	6.431968E-4	8.571672E-3
10/19/2017  17:25:21.260424	2.249308E-1	2.878422E-3	1.910059E-3	3.260791E-3	8.011712E-3	5.512546E-3	2.962248E-3	1.777940E-3
10/19/2017  17:25:21.261424	1.272625E-2	2.191784E-3	9.553929E-3	3.894223E-3	1.073748E-3	2.638539E-3	6.682338E-3	3.219635E-3
10/19/2017  17:25:21.262424	3.188860E-1	5.065753E-3	4.383885E-3	8.458671E-3	9.771446E-3	1.486264E-2	6.904521E-3	6.693008E-3
10/19/2017  17:25:21.263424	4.828104E-1	5.750530E-3	3.918599E-3	6.198618E-3	4.786898E-3	9.435076E-3	1.904913E-3	2.413289E-3
10/19/2017  17:25:21.264424	2.244970E-1	5.102569E-4	5.460759E-3	4.348826E-3	3.359888E-3	1.359489E-2	6.036318E-3	1.362176E-3
10/19/2017  17:25:21.265424	5.792875E-2	7.179438E-3	4.206614E-3	3.100960E-3	1.341280E-2	5.617521E-3	2.278823E-3	5.160876E-4
10/19/2017  17:25:21.266424	1.295175E-1	3.028239E-3	3.136660E-3	4.438000E-3	4.866884E-3	2.199437E-4	3.784579E-3	4.465660E-3
10/19/2017  17:25:21.267424	4.943268E-1	2.269610E-3	7.327160E-5	9.763878E-3	1.022790E-2	6.384797E-3	1.791418E-3	1.002973E-2
10/19/2017  17:25:21.268424	1.750896E-1	9.114977E-3	4.291598E-3	4.390193E-3	3.372311E-3	6.520353E-3	5.741994E-3	2.774770E-3
								
10/19/2017  17:25:21.269424	8.160524E-2	4.054265E-4	2.904957E-3	4.062075E-3	3.854012E-3	2.354078E-3	8.324838E-3	4.546541E-4
10/19/2017  17:25:21.270424	5.314815E-1	2.975750E-3	4.734713E-3	5.705580E-3	4.131760E-3	2.208943E-3	1.142333E-3	7.120522E-3
10/19/2017  17:25:21.271424	6.344337E-2	9.052966E-3	2.913748E-3	2.352688E-3	1.188486E-2	1.067857E-2	8.448190E-3	8.303531E-4
10/19/2017  17:25:21.272424	2.624681E-1	2.241960E-3	4.694188E-3	6.341049E-3	3.927912E-4	3.348557E-3	6.372247E-3	1.563837E-3
10/19/2017  17:25:21.273424	3.665898E-1	4.925836E-3	5.656335E-3	1.050894E-2	7.081458E-3	6.416602E-3	6.748904E-3	5.434437E-3
10/19/2017  17:25:21.274424	1.007591E-1	3.382115E-3	6.086099E-3	7.015378E-3	7.700500E-4	4.529654E-3	2.371549E-3	9.194688E-3
10/19/2017  17:25:21.275424	1.004233E-1	6.415280E-5	4.712009E-3	2.362890E-3	5.177988E-4	1.365977E-3	3.091617E-3	8.773001E-3
10/19/2017  17:25:21.276424	2.268842E-1	2.571740E-3	7.985501E-3	4.759205E-3	6.181396E-3	9.083283E-4	4.771085E-3	2.418627E-3
10/19/2017  17:25:21.277424	1.772935E-1	8.600364E-3	3.505363E-3	8.486226E-3	6.383499E-3	8.307831E-3	5.791524E-3	6.908622E-3
10/19/2017  17:25:21.278424	5.524684E-1	1.753878E-3	6.376310E-3	1.081210E-2	8.947901E-3	1.240568E-2	4.519800E-3	3.965849E-3
10/19/2017  17:25:21.279424	3.735087E-1	7.595734E-3	4.570130E-3	1.178847E-3	1.095495E-2	4.684511E-3	5.257395E-3	2.989932E-3
10/19/2017  17:25:21.280424	3.707670E-1	3.197559E-3	1.272721E-3	1.232978E-2	3.256511E-3	3.885666E-3	3.361843E-3	8.621628E-3
10/19/2017  17:25:21.281424	1.528408E-1	8.761045E-3	1.408075E-2	4.224021E-3	4.709842E-3	5.338419E-3	6.835713E-3	3.616051E-3
10/19/2017  17:25:21.282424	8.773474E-1	6.774681E-3	3.207415E-3	1.046540E-2	1.222076E-3	6.168372E-3	1.606315E-2	2.371262E-3
10/19/2017  17:25:21.283424	9.542060E-2	3.930889E-3	2.659147E-3	7.604835E-3	1.348581E-3	8.622384E-3	1.772698E-3	6.637446E-3
10/19/2017  17:25:21.284424	3.967203E-1	4.983199E-3	6.814902E-3	5.160744E-3	9.631622E-3	1.596163E-3	5.308885E-4	8.173054E-4
10/19/2017  17:25:21.285424	4.586764E-1	1.177455E-2	5.587738E-3	3.382838E-3	1.356511E-5	5.727624E-3	8.663237E-3	1.219582E-3
10/19/2017  17:25:21.286424	5.248509E-1	4.391577E-4	3.050216E-3	9.452467E-3	7.000278E-3	6.445929E-3	1.962735E-3	2.595813E-3
10/19/2017  17:25:21.287424	2.394338E-1	5.983225E-4	4.850327E-3	1.683744E-3	9.205536E-4	1.967622E-3	1.365150E-3	3.051849E-3
10/19/2017  17:25:21.288424	2.532756E-1	2.862394E-3	2.690393E-3	5.531458E-3	5.168752E-3	5.786792E-3	5.606791E-3	7.021874E-3
10/19/2017  17:25:21.289424	5.060467E-1	4.372340E-3	2.822161E-3	1.110254E-2	4.992032E-3	9.003315E-3	6.895302E-3	9.580526E-3
10/19/2017  17:25:21.290424	1.644354E-2	7.412410E-3	8.840650E-3	9.875055E-3	1.260844E-3	2.349062E-3	6.949096E-3	4.140691E-3
10/19/2017  17:25:21.291424	2.862868E-1	1.562962E-3	6.282785E-3	5.127853E-3	2.831149E-3	6.837459E-3	1.651244E-4	3.064157E-3
10/19/2017  17:25:21.292424	2.312448E-2	1.879114E-2	4.526484E-3	5.808535E-3	1.645620E-3	2.316580E-3	2.617029E-3	2.161914E-3
10/19/2017  17:25:21.293424	6.087309E-2	2.041949E-3	1.350279E-3	2.619600E-3	1.013462E-2	1.404545E-2	4.544664E-3	7.425063E-4
10/19/2017  17:25:21.294424	3.325421E-1	2.860280E-4	1.198300E-3	4.375025E-3	3.470275E-3	5.778980E-3	7.184772E-4	9.274424E-3
10/19/2017  17:25:21.295424	1.532241E-1	4.558915E-3	1.067242E-3	1.615069E-3	6.367625E-3	4.553145E-4	2.021352E-3	2.016663E-3
10/19/2017  17:25:21.296424	1.006782E-1	3.545103E-3	1.205595E-3	1.020512E-2	6.320624E-3	6.363125E-4	3.933893E-4	3.351360E-3
10/19/2017  17:25:21.297424	1.304009E-1	2.659509E-3	1.564552E-3	1.353957E-3	2.136864E-3	7.672248E-4	2.219176E-3	4.953724E-3
10/19/2017  17:25:21.298424	2.389530E-1	4.582166E-3	3.519675E-3	3.146037E-3	5.965727E-3	5.171303E-3	1.854488E-3	4.878410E-3
10/19/2017  17:25:21.299424	8.048130E-2	1.203800E-3	6.947862E-3	6.505394E-3	4.104481E-3	5.137944E-4	5.826953E-3	3.412088E-3
10/19/2017  17:25:21.300424	2.220617E-2	9.634977E-3	2.618261E-3	4.503079E-3	4.699196E-3	2.418518E-3	2.237685E-4	6.306361E-4
10/19/2017  17:25:21.301424	2.596708E-1	4.450141E-3	4.959645E-3	7.138480E-3	1.029591E-2	7.983024E-3	4.595798E-3	3.525826E-3
								
10/19/2017  17:25:21.302424	1.903765E-1	1.698341E-3	8.045273E-3	2.157258E-3	5.526196E-3	1.365295E-3	1.076525E-3	4.477382E-3
10/19/2017  17:25:21.303424	2.956317E-5	3.664832E-4	5.567096E-3	2.348586E-3	1.858262E-3	1.024420E-2	3.658698E-3	1.440502E-3
10/19/2017  17:25:21.304424	8.664194E-2	4.700866E-3	2.993558E-3	2.450360E-3	3.027534E-3	9.719402E-3	4.151379E-4	1.216797E-2
10/19/2017  17:25:21.305424	3.104330E-1	4.456940E-4	2.590468E-3	1.696611E-2	2.254763E-3	6.721745E-3	4.512038E-3	9.459350E-5
10/19/2017  17:25:21.306424	2.279754E-1	6.709120E-3	6.540102E-3	1.758277E-4	4.855615E-3	6.590837E-3	2.904962E-3	3.126986E-4
10/19/2017  17:25:21.307424	1.603800E-1	5.680062E-3	4.656696E-4	2.129003E-2	1.080672E-3	1.377005E-2	9.225967E-3	2.642906E-3
10/19/2017  17:25:21.308424	1.557620E-2	5.121148E-3	2.555351E-3	5.369210E-3	1.000851E-3	1.107124E-3	2.473252E-3	2.064720E-3
10/19/2017  17:25:21.309424	5.693171E-2	2.410466E-3	4.697208E-3	4.503177E-3	9.169562E-4	3.147072E-3	6.144983E-3	2.748441E-3
10/19/2017  17:25:21.310424	1.848655E-1	9.430212E-4	1.401878E-2	8.012908E-3	7.321019E-3	8.793756E-3	2.030783E-3	1.038698E-2
10/19/2017  17:25:21.311424	5.170070E-2	1.414136E-2	1.235254E-2	8.002501E-3	7.750488E-4	8.116811E-3	1.183363E-2	1.906349E-3
10/19/2017  17:25:21.312424	9.991173E-2	5.728914E-3	1.354470E-2	3.260270E-3	3.994077E-3	3.596362E-3	6.168584E-3	6.421344E-3
10/19/2017  17:25:21.313424	5.931547E-2	4.950299E-3	8.178941E-4	9.019890E-3	7.683238E-4	1.144797E-3	9.021201E-3	7.967992E-4
10/19/2017  17:25:21.314424	7.175217E-2	8.141937E-3	1.274001E-2	6.713262E-3	7.070232E-3	1.234471E-2	1.998060E-3	5.384588E-3
10/19/2017  17:25:21.315424	1.321185E-2	5.022105E-3	2.494012E-3	2.620360E-3	8.201870E-3	4.528900E-4	3.127558E-3	1.992113E-3
10/19/2017  17:25:21.316424	1.965950E-1	1.302914E-3	3.622453E-3	6.909544E-3	1.017551E-2	8.117768E-3	4.535740E-3	5.945277E-3
10/19/2017  17:25:21.317424	1.374657E-1	2.851793E-3	2.243574E-3	9.104257E-3	1.883597E-3	9.354715E-4	1.028744E-3	2.280307E-3
10/19/2017  17:25:21.318424	3.643786E-2	3.794166E-3	8.560905E-3	3.719318E-3	1.053028E-2	8.623005E-3	5.868475E-3	5.954084E-3
10/19/2017  17:25:21.319424	2.274855E-1	4.394132E-3	4.092293E-3	9.067700E-3	7.643460E-3	7.897128E-3	8.406698E-3	3.106026E-4
10/19/2017  17:25:21.320424	2.597452E-1	7.989306E-3	1.485785E-3	4.987898E-3	1.290189E-3	2.598096E-2	9.721002E-4	2.662707E-3
10/19/2017  17:25:21.321424	2.535672E-3	1.672113E-2	5.453892E-3	2.739607E-4	1.634543E-2	3.274785E-3	7.729535E-3	1.071755E-2
10/19/2017  17:25:21.322424	1.154624E-1	1.521859E-3	5.717330E-4	2.487531E-3	1.702807E-3	2.492044E-3	5.799119E-3	5.582094E-3
10/19/2017  17:25:21.323424	2.845965E-2	8.164663E-3	1.591137E-3	1.286577E-2	1.682462E-2	6.597332E-3	1.988572E-3	8.460978E-3
10/19/2017  17:25:21.324424	5.645759E-2	1.044893E-2	9.888390E-3	1.647179E-3	3.142608E-3	2.825719E-3	7.333636E-3	1.516074E-3
10/19/2017  17:25:21.325424	1.231669E-1	2.974986E-3	4.728802E-3	1.094065E-2	1.122027E-2	2.144776E-3	1.391162E-3	3.570516E-3
10/19/2017  17:25:21.326424	9.110039E-2	4.195126E-4	5.069847E-3	2.318631E-3	4.892388E-3	1.274245E-3	3.170667E-3	6.063564E-4
10/19/2017  17:25:21.327424	2.168991E-1	2.887181E-3	6.924129E-4	9.038927E-3	1.403482E-2	1.612364E-3	2.334183E-3	3.709629E-3
10/19/2017  17:25:21.328424	8.712930E-2	8.885578E-3	4.737877E-3	1.999201E-2	5.445182E-3	2.814806E-3	4.047544E-3	1.063243E-2
10/19/2017  17:25:21.329424	2.234645E-1	2.016645E-3	1.283127E-2	1.022903E-3	4.552471E-3	1.506545E-3	5.096183E-3	3.277873E-3
10/19/2017  17:25:21.330424	3.455371E-1	8.741570E-4	9.476901E-3	1.058422E-2	2.859430E-3	6.041188E-3	5.597098E-3	4.528897E-3
10/19/2017  17:25:21.331424	7.835710E-2	3.545091E-3	4.172991E-3	3.100224E-3	6.994572E-4	4.585967E-4	7.290345E-3	5.565970E-3
10/19/2017  17:25:21.332424	1.583066E-1	8.566809E-3	8.655394E-4	6.296047E-3	5.445114E-3	1.372785E-2	5.489564E-3	1.778084E-3
10/19/2017  17:25:21.333424	7.283219E-2	1.042945E-2	4.927809E-3	4.709747E-3	1.081562E-2	3.234258E-3	6.116181E-3	1.055050E-3
10/19/2017  17:25:21.334424	4.843405E-2	2.627309E-3	3.298861E-3	2.640685E-3	3.372805E-3	4.496344E-3	8.436202E-3	3.401695E-3
								
10/19/2017  17:25:21.335424	1.465797E-1	5.330079E-3	8.426628E-3	3.428415E-3	4.323684E-3	7.723247E-3	1.109978E-3	2.102942E-3
10/19/2017  17:25:21.336424	3.488080E-1	1.087209E-2	5.599221E-3	2.000278E-2	1.726805E-3	1.100334E-3	1.014848E-2	3.181688E-3
10/19/2017  17:25:21.337424	3.215702E-1	3.594664E-3	9.023473E-3	1.436454E-3	3.893833E-3	3.099104E-3	9.753270E-3	2.725448E-3
10/19/2017  17:25:21.338424	9.652320E-2	6.134253E-3	8.946741E-3	5.515611E-3	9.920190E-4	2.242230E-3	1.040432E-2	2.602066E-3
10/19/2017  17:25:21.339424	3.780763E-1	8.542778E-3	4.484324E-3	7.022567E-3	3.219657E-3	3.673764E-3	3.604345E-3	8.925911E-3
10/19/2017  17:25:21.340424	2.680664E-1	5.253925E-3	3.168719E-3	2.771349E-3	3.951610E-3	2.355980E-3	4.902132E-3	1.508908E-4
10/19/2017  17:25:21.341424	1.808542E-1	4.191251E-3	8.040158E-5	4.752967E-3	6.739326E-3	3.053965E-3	7.344665E-3	4.001390E-3
10/19/2017  17:25:21.342424	3.360679E-2	1.188546E-2	2.419042E-3	3.483838E-3	2.728218E-4	9.003296E-3	1.431013E-3	1.849050E-3
10/19/2017  17:25:21.343424	1.292083E-1	4.060915E-4	1.046745E-2	2.404903E-3	5.380692E-3	2.225761E-3	3.374968E-3	2.630387E-3
10/19/2017  17:25:21.344424	8.469040E-2	4.964597E-3	4.950697E-3	9.301759E-3	1.320048E-2	3.735781E-3	8.931023E-3	3.546025E-3
10/19/2017  17:25:21.345424	3.271911E-1	5.895464E-3	3.636664E-3	2.185569E-3	9.382464E-4	1.111736E-2	1.700967E-3	4.636074E-3
10/19/2017  17:25:21.346424	2.866052E-1	1.095928E-2	3.249152E-3	8.994413E-4	2.876689E-3	3.549168E-3	5.797346E-3	6.040256E-3
10/19/2017  17:25:21.347424	2.086750E-1	3.335886E-3	5.044695E-3	3.375546E-3	1.958244E-3	2.048300E-2	4.507684E-3	1.111142E-2
10/19/2017  17:25:21.348424	2.562125E-2	2.725803E-3	1.835042E-3	1.101549E-2	7.667149E-3	8.000855E-3	3.402561E-3	9.508880E-3
10/19/2017  17:25:21.349424	8.675100E-2	3.529440E-5	1.634704E-3	7.145328E-4	5.937990E-3	1.405514E-3	1.850720E-3	2.355677E-3
10/19/2017  17:25:21.350424	3.956106E-2	1.050927E-2	2.875048E-3	4.915487E-4	4.703291E-3	6.024813E-3	7.694522E-3	5.062431E-3
10/19/2017  17:25:21.351424	2.131549E-1	8.335253E-3	3.797622E-3	3.119031E-4	5.015384E-3	9.130879E-3	7.276659E-4	5.848566E-3
10/19/2017  17:25:21.352424	1.683436E-1	8.628259E-3	4.399520E-3	6.310221E-3	7.411323E-3	4.497770E-3	4.374225E-3	3.957090E-3
10/19/2017  17:25:21.353424	2.038745E-1	2.325021E-3	7.988455E-3	6.508915E-3	1.074964E-2	3.365380E-3	5.735613E-3	4.116270E-3
10/19/2017  17:25:21.354424	2.015298E-2	1.459664E-3	3.749822E-3	3.338073E-4	3.997290E-4	4.561738E-3	2.152142E-3	7.638209E-3
10/19/2017  17:25:21.355424	1.783613E-1	1.407819E-3	1.636274E-3	8.445915E-3	2.458799E-3	8.862685E-4	5.232298E-3	3.093986E-3
10/19/2017  17:25:21.356424	1.279879E-1	1.268827E-3	5.447085E-3	7.620259E-4	2.286375E-3	3.351887E-4	2.625408E-3	1.394113E-4
10/19/2017  17:25:21.357424	7.302911E-3	5.441438E-3	1.455155E-3	2.035484E-2	6.914887E-5	1.034673E-4	1.682812E-3	1.822852E-3
10/19/2017  17:25:21.358424	8.246322E-2	4.388565E-4	3.667064E-3	5.364957E-3	2.598768E-3	9.076624E-3	1.246263E-3	1.199607E-2
10/19/2017  17:25:21.359424	3.001037E-2	2.506196E-3	5.044222E-3	2.075505E-3	1.308301E-2	2.177010E-3	5.472139E-3	6.648741E-3
10/19/2017  17:25:21.360424	3.893101E-2	6.044753E-3	3.642623E-3	1.260036E-2	7.042433E-3	7.224100E-3	6.107447E-3	6.141522E-3
10/19/2017  17:25:21.361424	9.340843E-3	3.305965E-4	1.874892E-3	2.313270E-3	2.009337E-3	5.033029E-3	1.944475E-3	6.440994E-3
10/19/2017  17:25:21.362424	1.547420E-1	7.088283E-3	1.469525E-3	5.237151E-3	1.066415E-2	3.271382E-3	7.659140E-3	6.610687E-3
10/19/2017  17:25:21.363424	2.483610E-1	3.003009E-3	3.186991E-3	1.825432E-3	5.188520E-3	9.124686E-3	5.625012E-3	7.090916E-3
10/19/2017  17:25:21.364424	3.875788E-1	4.406665E-3	1.091056E-2	5.785100E-3	3.349456E-3	2.124954E-3	4.067894E-4	6.273451E-4
10/19/2017  17:25:21.365424	4.462318E-1	3.399848E-3	9.663803E-3	2.427771E-3	1.818782E-3	8.812005E-4	1.336605E-2	2.361149E-4
10/19/2017  17:25:21.366424	1.488419E-2	4.097078E-3	1.106531E-2	6.073477E-3	5.924587E-3	7.354250E-3	1.677559E-3	6.560982E-3
10/19/2017  17:25:21.367424	1.937589E-1	4.998986E-3	1.008595E-2	6.244966E-3	4.797425E-3	5.216491E-3	1.696358E-3	4.693860E-3
								
10/19/2017  17:25:21.368424	1.780926E-1	7.541735E-3	3.162509E-3	6.921588E-3	8.132340E-3	5.208181E-3	8.153520E-3	7.666756E-3
10/19/2017  17:25:21.369424	5.317974E-2	7.594716E-3	2.610796E-3	1.155761E-3	2.809800E-3	1.693899E-3	1.668522E-3	5.423537E-3
10/19/2017  17:25:21.370424	1.144188E-1	5.096106E-3	4.540057E-3	6.074636E-3	2.597255E-4	3.400611E-3	3.403873E-3	1.374361E-3
10/19/2017  17:25:21.371424	1.255432E-1	1.313411E-3	5.038730E-3	2.381963E-3	4.027698E-3	2.016736E-3	6.294530E-3	5.963927E-3
10/19/2017  17:25:21.372424	3.265306E-2	3.780493E-3	3.023935E-3	3.937511E-3	4.751891E-3	7.108633E-3	2.118419E-3	6.690750E-3
10/19/2017  17:25:21.373424	4.929826E-2	7.604727E-3	2.945377E-3	1.025584E-2	1.469676E-3	8.264188E-3	1.617125E-3	4.387958E-4
10/19/2017  17:25:21.374424	2.081994E-1	3.573933E-3	1.149005E-2	1.600313E-3	1.025097E-2	8.188854E-3	3.343724E-3	4.090954E-3
10/19/2017  17:25:21.375424	1.498068E-1	1.026710E-2	8.508902E-3	1.008337E-2	9.747787E-4	8.816346E-4	1.109574E-4	6.900269E-4
10/19/2017  17:25:21.376424	3.739183E-1	3.020744E-4	1.641803E-3	9.242411E-3	7.354007E-4	9.552693E-3	2.078379E-3	3.592642E-4
10/19/2017  17:25:21.377424	7.052673E-2	1.125996E-2	1.253083E-3	6.003571E-3	1.030055E-2	1.910998E-3	1.220536E-3	4.223917E-3
10/19/2017  17:25:21.378424	1.741827E-1	3.239732E-4	3.318155E-3	9.650569E-3	3.871815E-3	1.458637E-3	8.113188E-3	1.301206E-3
10/19/2017  17:25:21.379424	9.201150E-1	6.471557E-3	1.795579E-3	7.598243E-3	7.429264E-3	5.392759E-3	5.845334E-3	1.252677E-3
10/19/2017  17:25:21.380424	2.441607E-1	4.588796E-3	7.525062E-3	5.818729E-3	7.483811E-3	3.654985E-3	4.701325E-3	7.346622E-3
10/19/2017  17:25:21.381424	3.506887E-1	3.480815E-3	2.614216E-3	2.128891E-3	6.526766E-4	2.107027E-3	7.781498E-3	3.736721E-3
10/19/2017  17:25:21.382424	2.116585E-1	4.846305E-3	3.278237E-3	1.536123E-3	2.139036E-3	8.347813E-3	1.155089E-3	5.102283E-3
10/19/2017  17:25:21.383424	1.722231E-1	3.464272E-3	5.289990E-3	5.448853E-3	1.282149E-3	5.990461E-3	3.244605E-3	1.018325E-2
10/19/2017  17:25:21.384424	9.574100E-2	1.500418E-4	2.240414E-3	2.734491E-3	3.757310E-3	2.480628E-3	2.457680E-3	2.562769E-3
10/19/2017  17:25:21.385424	1.543768E-1	9.418754E-5	6.470663E-3	1.334694E-4	3.266170E-3	1.363541E-4	3.761049E-4	9.564399E-3
10/19/2017  17:25:21.386424	4.328755E-1	2.434135E-3	1.141071E-2	2.129292E-3	9.303336E-3	6.302302E-3	4.072404E-3	6.224580E-4
10/19/2017  17:25:21.387424	1.829704E-1	1.048658E-2	6.807863E-4	5.816969E-3	8.918896E-3	4.702408E-3	7.077961E-3	1.513882E-3
10/19/2017  17:25:21.388424	3.057017E-1	2.826952E-3	7.483535E-4	2.114339E-2	4.765603E-3	1.030067E-2	1.906998E-3	8.088182E-4
10/19/2017  17:25:21.389424	8.530069E-2	1.443260E-3	5.112641E-3	9.920583E-3	3.607897E-3	9.254115E-4	6.179355E-3	2.433628E-4
10/19/2017  17:25:21.390424	3.151335E-2	8.321646E-3	5.879697E-3	1.034079E-2	2.618822E-3	6.028224E-4	4.689274E-3	1.959792E-3
10/19/2017  17:25:21.391424	2.635557E-1	2.075809E-3	3.209199E-4	8.081588E-3	3.803535E-4	8.301474E-3	3.411191E-3	3.399397E-3
10/19/2017  17:25:21.392424	3.968389E-1	8.311819E-3	4.677604E-4	8.278943E-3	4.693890E-3	3.531739E-3	1.061918E-2	1.505100E-3
10/19/2017  17:25:21.393424	1.266480E-1	5.169419E-4	3.751521E-3	3.719543E-3	5.417127E-3	4.414326E-3	7.279016E-3	3.690849E-3
10/19/2017  17:25:21.394424	5.867027E-2	2.535714E-3	1.068307E-2	6.242737E-3	1.335648E-3	3.488943E-3	8.453650E-3	9.439973E-3
10/19/2017  17:25:21.395424	2.433204E-1	3.869495E-3	1.411416E-2	2.352218E-3	6.034098E-3	5.197530E-4	4.336116E-3	8.818701E-3
10/19/2017  17:25:21.396424	4.111717E-2	3.177386E-4	7.866159E-3	7.030054E-3	2.792519E-4	1.131640E-2	1.193437E-3	7.193343E-4
10/19/2017  17:25:21.397424	6.347826E-4	4.439739E-3	1.475461E-2	4.826896E-4	3.854635E-3	5.598516E-3	5.357723E-3	5.467647E-3
10/19/2017  17:25:21.398424	2.278431E-1	9.534575E-4	3.935369E-3	4.351235E-3	1.068587E-2	7.468361E-3	5.945967E-3	6.539539E-3
10/19/2017  17:25:21.399424	2.291291E-1	1.694827E-3	1.900164E-3	4.727149E-3	9.862126E-3	1.874919E-2	4.086762E-4	2.733036E-3
10/19/2017  17:25:21.400424	2.562263E-1	5.692419E-3	3.885713E-3	1.771817E-3	8.521213E-3	4.426251E-3	2.853843E-3	8.520896E-3
								
10/19/2017  17:25:21.401424	1.420141E-1	3.306733E-4	5.156315E-3	8.611488E-3	6.252778E-3	2.495426E-3	2.097792E-4	1.499418E-3
10/19/2017  17:25:21.402424	2.638460E-2	1.804744E-3	2.803943E-3	1.320247E-2	2.156383E-3	1.418710E-2	2.648914E-3	7.968859E-3
10/19/2017  17:25:21.403424	1.766936E-1	5.397752E-3	6.251833E-3	7.961667E-4	8.118626E-3	6.163972E-3	2.157103E-3	1.482997E-3
10/19/2017  17:25:21.404424	1.448478E-1	1.339057E-2	2.058015E-4	1.250769E-2	5.285929E-3	4.211247E-3	5.485118E-3	1.056352E-3
10/19/2017  17:25:21.405424	6.884465E-2	2.523635E-3	1.135268E-2	1.000631E-4	3.898100E-3	5.015549E-3	7.525591E-3	3.628449E-3
10/19/2017  17:25:21.406424	1.732061E-1	1.628093E-2	3.743167E-3	4.889473E-3	8.094900E-3	5.444622E-3	1.012304E-2	1.792340E-3
10/19/2017  17:25:21.407424	8.924766E-2	7.533026E-3	6.256306E-3	3.820543E-3	3.127574E-3	4.106765E-3	7.515527E-4	5.609389E-3
10/19/2017  17:25:21.408424	8.184208E-2	3.433200E-3	1.922757E-3	2.884625E-3	6.760298E-3	7.911291E-4	6.042618E-3	3.762876E-3
10/19/2017  17:25:21.409424	2.993326E-1	4.710658E-3	3.092916E-3	4.232323E-3	3.913302E-3	1.649276E-3	1.295705E-4	2.098182E-3
10/19/2017  17:25:21.410424	1.599192E-1	3.221495E-3	2.060315E-3	3.655401E-3	1.021461E-2	5.505247E-3	1.894805E-3	6.681743E-3
10/19/2017  17:25:21.411424	4.294762E-2	2.002635E-3	7.296259E-3	1.024923E-2	4.263093E-4	2.762940E-3	5.380324E-3	4.632035E-3
10/19/2017  17:25:21.412424	3.552662E-2	1.352147E-3	1.005444E-2	1.855085E-3	4.519398E-3	4.276109E-3	1.747996E-3	4.636073E-3
10/19/2017  17:25:21.413424	9.638205E-2	5.663638E-3	4.784989E-4	6.227420E-3	3.581036E-3	1.163340E-2	9.556596E-4	2.330813E-4
10/19/2017  17:25:21.414424	1.578152E-3	8.296764E-3	2.152212E-3	3.822943E-3	9.250937E-3	3.396788E-3	7.184299E-3	9.506567E-3
10/19/2017  17:25:21.415424	2.591861E-1	5.328138E-3	3.979011E-3	4.283742E-3	6.408202E-3	1.356576E-2	5.438667E-4	9.672492E-3
10/19/2017  17:25:21.416424	9.891297E-2	1.061455E-2	3.507498E-3	7.809631E-3	4.631884E-3	3.634693E-3	2.937225E-5	1.153129E-2
10/19/2017  17:25:21.417424	1.918707E-1	3.145924E-3	6.557632E-3	2.081131E-2	5.927649E-3	6.648345E-4	1.331426E-2	6.334026E-4
10/19/2017  17:25:21.418424	1.969083E-1	4.559588E-3	6.250496E-3	5.389005E-3	6.618117E-3	6.756934E-4	5.045634E-3	7.773051E-4
10/19/2017  17:25:21.419424	1.095141E-1	5.604707E-3	5.128330E-3	8.962343E-3	4.003796E-3	4.988056E-3	7.656246E-3	7.369830E-3
10/19/2017  17:25:21.420424	8.642524E-2	6.101834E-3	1.316319E-2	4.694184E-3	6.521236E-4	1.394275E-3	3.544622E-3	1.139410E-3
10/19/2017  17:25:21.421424	4.966881E-2	4.636756E-3	7.585847E-3	7.313832E-4	6.856525E-3	3.423682E-3	9.070295E-3	5.032622E-3
10/19/2017  17:25:21.422424	2.806769E-2	1.218355E-2	1.189969E-2	4.588925E-3	2.329830E-3	4.053195E-3	2.480838E-3	1.091591E-3
10/19/2017  17:25:21.423424	1.036969E-1	8.851300E-3	4.856062E-3	2.807671E-3	7.572617E-3	3.707632E-3	4.234711E-3	4.007510E-3
10/19/2017  17:25:21.424424	1.890884E-1	1.384635E-4	3.757491E-3	5.129170E-3	1.438981E-2	9.132197E-3	7.471154E-3	3.248337E-3
10/19/2017  17:25:21.425424	5.744440E-2	2.026395E-3	3.684746E-3	1.064927E-2	3.011110E-3	1.804821E-3	5.127424E-3	4.678261E-3
10/19/2017  17:25:21.426424	2.494590E-1	1.325810E-3	4.082950E-3	7.661609E-3	4.621001E-3	9.351786E-3	5.470455E-3	8.060884E-3
10/19/2017  17:25:21.427424	4.338004E-1	7.449745E-4	5.165844E-3	3.515269E-3	7.755137E-3	5.144364E-3	6.422241E-3	6.434430E-4
10/19/2017  17:25:21.428424	2.360217E-1	1.886768E-3	2.954154E-3	7.125005E-3	9.981756E-4	2.622249E-2	3.612800E-4	2.556325E-3
10/19/2017  17:25:21.429424	5.812718E-3	7.077825E-3	5.689728E-5	5.700958E-3	1.042542E-2	3.516540E-3	6.169166E-3	3.801698E-3
10/19/2017  17:25:21.430424	3.181388E-2	1.934096E-3	4.473154E-3	2.629827E-3	5.191498E-3	6.564268E-3	4.094040E-3	2.336063E-3
10/19/2017  17:25:21.431424	2.034167E-1	4.572337E-3	9.857997E-4	1.044273E-4	3.175152E-3	4.930771E-3	4.105059E-3	5.345855E-3
10/19/2017  17:25:21.432424	2.079811E-1	6.115077E-3	5.882992E-3	4.202811E-3	6.928498E-3	7.672999E-4	7.707889E-3	6.352902E-3
10/19/2017  17:25:21.433424	1.230733E-1	4.946223E-3	6.220917E-3	8.196932E-3	1.365814E-2	6.979331E-3	5.653967E-3	8.308863E-3
								
10/19/2017  17:25:21.434424	8.478253E-2	1.747765E-3	1.813249E-3	4.825110E-3	1.623483E-3	4.010456E-3	2.565161E-3	3.120782E-3
10/19/2017  17:25:21.435424	5.234909E-1	5.854307E-3	3.669403E-3	3.155038E-3	1.044237E-2	9.857830E-4	6.222675E-3	6.919804E-3
10/19/2017  17:25:21.436424	1.560371E-1	9.452741E-5	5.354108E-3	2.553891E-3	3.361146E-3	7.428245E-3	4.378434E-3	5.029270E-3
10/19/2017  17:25:21.437424	9.065981E-2	2.085847E-3	4.428298E-3	2.270857E-3	2.734924E-4	3.370673E-3	9.658546E-3	8.975469E-4
10/19/2017  17:25:21.438424	7.334034E-2	5.695850E-3	2.580962E-3	2.321976E-3	8.460032E-3	4.509356E-3	2.111705E-3	7.310236E-3
10/19/2017  17:25:21.439424	7.026077E-2	5.833428E-3	7.571718E-3	7.475855E-3	2.960167E-3	7.816701E-4	6.216436E-3	8.107863E-4
10/19/2017  17:25:21.440424	2.204239E-2	1.278077E-3	1.633282E-3	7.732227E-3	4.578333E-3	6.291261E-3	1.875140E-3	1.752522E-3
10/19/2017  17:25:21.441424	2.897804E-1	6.466209E-3	8.119681E-3	7.566344E-3	9.505440E-4	2.485835E-3	1.034471E-3	5.113099E-3
10/19/2017  17:25:21.442424	7.442849E-1	9.668035E-3	5.955786E-3	1.392067E-2	3.766097E-3	3.610286E-4	1.212370E-3	7.457392E-3
10/19/2017  17:25:21.443424	3.920025E-1	7.863817E-4	8.846496E-3	5.944715E-3	3.836763E-3	1.925269E-3	2.751624E-3	7.572764E-3
10/19/2017  17:25:21.444424	2.705630E-2	5.616139E-3	1.828794E-3	5.889816E-3	4.814895E-3	5.152672E-3	3.700799E-3	7.719832E-4
10/19/2017  17:25:21.445424	1.997697E-1	5.180636E-3	1.196003E-2	9.683079E-3	1.203651E-3	2.945127E-3	2.307232E-3	4.184043E-3
10/19/2017  17:25:21.446424	2.277835E-1	1.965367E-3	4.052945E-3	1.618373E-2	7.664180E-3	1.296731E-2	8.738056E-3	7.577551E-3
10/19/2017  17:25:21.447424	6.406515E-2	1.253789E-2	8.349645E-3	1.012355E-2	3.309058E-3	2.293908E-3	2.209722E-3	7.505775E-3
10/19/2017  17:25:21.448424	4.350766E-1	8.490524E-3	3.976168E-3	1.627405E-3	1.082099E-2	7.714651E-3	3.888803E-3	8.042996E-3
10/19/2017  17:25:21.449424	3.035261E-1	1.462058E-2	7.980308E-3	7.852987E-3	1.129863E-3	8.141689E-3	5.975926E-4	5.961138E-3
10/19/2017  17:25:21.450424	3.235679E-1	1.099290E-3	9.720060E-3	3.312424E-3	7.529927E-3	5.934843E-3	4.656451E-3	4.430040E-3
10/19/2017  17:25:21.451424	2.822714E-1	8.116830E-3	8.302501E-3	4.476963E-3	9.620888E-3	2.414959E-3	5.176902E-3	7.377949E-3
10/19/2017  17:25:21.452424	2.177199E-1	8.529030E-3	8.324186E-3	3.447109E-3	2.343444E-3	2.971036E-4	1.213037E-3	3.829178E-3
10/19/2017  17:25:21.453424	4.776290E-2	1.972677E-3	1.354627E-2	4.205550E-4	2.067119E-3	1.073326E-2	7.980981E-3	7.454391E-3
10/19/2017  17:25:21.454424	6.798204E-2	6.896641E-4	5.954858E-3	1.039171E-2	1.410956E-3	9.883898E-3	3.904734E-3	1.043727E-3
10/19/2017  17:25:21.455424	5.645830E-2	6.044617E-3	1.915650E-3	3.953355E-3	4.048746E-4	1.348667E-2	5.658248E-3	2.783566E-3
10/19/2017  17:25:21.456424	1.003405E-1	1.058737E-2	9.958991E-4	9.846272E-3	4.870221E-3	8.328462E-3	6.911719E-4	1.727524E-3
10/19/2017  17:25:21.457424	7.955038E-2	2.512342E-3	1.269534E-2	7.153023E-4	1.067370E-2	8.601193E-3	5.271376E-3	1.303845E-3
10/19/2017  17:25:21.458424	2.046960E-1	2.294243E-2	2.533243E-3	8.033711E-3	1.006774E-2	4.524222E-3	6.198183E-3	7.778795E-3
10/19/2017  17:25:21.459424	3.249550E-1	3.581043E-3	2.774126E-3	9.679063E-4	3.824912E-3	2.957059E-3	1.122329E-4	3.465600E-3
10/19/2017  17:25:21.460424	5.252620E-2	4.044246E-3	2.134116E-3	4.420826E-3	1.151531E-2	4.988911E-4	3.068638E-5	1.965719E-3
10/19/2017  17:25:21.461424	6.531097E-1	7.109141E-4	7.424891E-3	6.328125E-3	2.953744E-3	7.321291E-3	4.083585E-5	1.481431E-3
10/19/2017  17:25:21.462424	5.786265E-1	4.739218E-3	1.123790E-3	1.816568E-2	1.542168E-2	7.603811E-3	4.417879E-3	3.246161E-3
10/19/2017  17:25:21.463424	2.216021E-1	1.239420E-3	7.211704E-3	4.371373E-3	4.199773E-3	9.737159E-4	7.734008E-3	2.143828E-3
10/19/2017  17:25:21.464424	5.038618E-2	7.681617E-3	3.888028E-3	9.608771E-3	8.462187E-3	8.190122E-3	5.328268E-3	2.694262E-3
10/19/2017  17:25:21.465424	1.111625E-1	9.655580E-4	3.372637E-3	8.679464E-3	6.240810E-5	1.474590E-3	3.162295E-3	2.596259E-3
10/19/2017  17:25:21.466424	2.692409E-1	6.677133E-4	2.382142E-4	1.360661E-4	2.498872E-3	3.434118E-3	3.767773E-3	1.061981E-2
								
10/19/2017  17:25:21.467424	2.435175E-1	4.732224E-3	3.597830E-3	6.476847E-3	6.140447E-5	2.495265E-3	6.571308E-3	1.370951E-3
10/19/2017  17:25:21.468424	9.422814E-2	3.370433E-3	3.484606E-4	2.230217E-3	6.194809E-3	1.693247E-3	2.972875E-3	7.294227E-3
10/19/2017  17:25:21.469424	8.826787E-2	2.596975E-3	1.088096E-3	1.102173E-2	3.785293E-3	7.617734E-3	2.744080E-4	6.276540E-3
10/19/2017  17:25:21.470424	5.084402E-1	1.931525E-3	1.644693E-3	1.589173E-3	6.852144E-3	1.029606E-3	4.814286E-3	1.581033E-2
10/19/2017  17:25:21.471424	2.840523E-1	3.522735E-3	1.283847E-2	1.066140E-2	9.939482E-3	3.769831E-3	1.434591E-2	1.790687E-3
10/19/2017  17:25:21.472424	2.249578E-1	1.776965E-4	1.602920E-2	8.103723E-3	3.087564E-3	3.737246E-3	3.215898E-3	1.456341E-3
10/19/2017  17:25:21.473424	7.856954E-2	8.735010E-3	1.869009E-3	5.890216E-3	2.348088E-3	6.142857E-3	7.139267E-3	1.170537E-3
10/19/2017  17:25:21.474424	2.855566E-2	3.961483E-3	1.040646E-2	1.833487E-3	2.623737E-3	2.138061E-3	5.358774E-3	3.086652E-3
10/19/2017  17:25:21.475424	7.803156E-2	1.840537E-3	9.629090E-3	7.703987E-3	6.087141E-3	3.695753E-3	4.787782E-3	6.459311E-3
10/19/2017  17:25:21.476424	8.979123E-3	1.243913E-2	6.457466E-3	5.618136E-3	4.694834E-3	1.829241E-3	1.083940E-3	6.542758E-3
10/19/2017  17:25:21.477424	1.616760E-1	2.230839E-3	6.966732E-3	4.767275E-3	3.604796E-3	1.411063E-3	7.438691E-3	4.537061E-3
10/19/2017  17:25:21.478424	3.371894E-1	5.254166E-3	7.720125E-3	9.497631E-4	4.903370E-4	5.432149E-3	3.429722E-3	5.883932E-3
10/19/2017  17:25:21.479424	2.740287E-1	1.258833E-2	7.923699E-3	5.755155E-3	6.869560E-3	7.165924E-3	8.946558E-3	4.457997E-3
10/19/2017  17:25:21.480424	7.714070E-2	1.282751E-5	7.429964E-3	3.801538E-3	6.791455E-3	1.375122E-2	6.930867E-3	3.237880E-3
10/19/2017  17:25:21.481424	1.410631E-1	1.123857E-2	3.431129E-3	2.159179E-3	1.279506E-4	3.768370E-3	5.122754E-3	2.111995E-3
10/19/2017  17:25:21.482424	3.905196E-1	5.874601E-4	2.800664E-4	6.302783E-5	1.167299E-2	9.800970E-3	1.427446E-3	7.075329E-3
10/19/2017  17:25:21.483424	2.358910E-1	1.709703E-3	2.293420E-3	4.885015E-3	6.458383E-3	5.100988E-3	8.433929E-4	1.765411E-3
10/19/2017  17:25:21.484424	1.541998E-1	3.273735E-3	5.765298E-3	3.959152E-3	1.859343E-3	1.492451E-3	8.267985E-3	1.607399E-3
10/19/2017  17:25:21.485424	1.452003E-1	1.070131E-2	3.629050E-3	1.170478E-3	5.588472E-4	5.496364E-3	3.665908E-3	1.447749E-3
10/19/2017  17:25:21.486424	1.142716E-2	1.039961E-2	4.008220E-3	4.775474E-3	4.792735E-4	1.674770E-2	4.479169E-3	7.345141E-3
10/19/2017  17:25:21.487424	5.673544E-2	2.886662E-3	4.637837E-3	5.858065E-3	3.042899E-3	2.816545E-4	5.968840E-3	1.807864E-3
10/19/2017  17:25:21.488424	4.391819E-3	1.146852E-2	1.074916E-2	2.491718E-3	1.412194E-2	8.869876E-4	8.939490E-3	1.889644E-3
10/19/2017  17:25:21.489424	1.526906E-1	2.796543E-4	8.246086E-3	2.175392E-3	2.373412E-2	1.473554E-2	2.043445E-3	1.269865E-2
10/19/2017  17:25:21.490424	3.690436E-1	2.245646E-3	6.094849E-3	1.187663E-2	7.419881E-4	8.984670E-3	7.348679E-3	9.118276E-3
10/19/2017  17:25:21.491424	1.575765E-1	2.926520E-3	2.214581E-3	2.304155E-3	9.744171E-3	4.446343E-3	5.637899E-3	4.705834E-3
10/19/2017  17:25:21.492424	4.562144E-2	4.365083E-3	8.106673E-3	3.778823E-3	5.010001E-3	3.117327E-3	3.793137E-4	1.538799E-3
10/19/2017  17:25:21.493424	3.934215E-1	7.350082E-3	9.915185E-4	3.462971E-4	1.437319E-2	4.492956E-3	1.762392E-3	1.382643E-3
10/19/2017  17:25:21.494424	1.016901E+0	2.650566E-3	7.522384E-3	4.309914E-3	9.858470E-3	7.640955E-3	3.202621E-3	7.713373E-3
10/19/2017  17:25:21.495424	6.090736E-1	5.231491E-3	3.248399E-3	1.176552E-3	3.084316E-3	9.312136E-4	1.901821E-3	1.408745E-2
10/19/2017  17:25:21.496424	2.027103E-1	6.406381E-3	8.632403E-3	7.598299E-4	2.398008E-3	1.042705E-2	1.325685E-3	1.222544E-2
10/19/2017  17:25:21.497424	6.652943E-1	1.641595E-3	3.837611E-3	1.730820E-3	4.704622E-3	3.003689E-3	1.011067E-2	1.251961E-2
10/19/2017  17:25:21.498424	8.600496E-1	3.456543E-3	1.971667E-3	1.207759E-2	1.212599E-3	2.521741E-3	5.208753E-3	6.979734E-3
10/19/2017  17:25:21.499424	1.962538E-1	3.802372E-3	3.888611E-4	4.829081E-3	5.420650E-3	2.113641E-3	1.432881E-3	5.647366E-3
								
10/19/2017  17:25:21.500424	6.610890E-1	4.119894E-3	2.272367E-3	6.924695E-3	1.699047E-3	6.078733E-3	5.689797E-3	2.303914E-3
10/19/2017  17:25:21.501424	6.863912E-2	3.293052E-3	1.944312E-3	4.438721E-3	3.240463E-3	6.433026E-3	1.940988E-3	4.124771E-3
10/19/2017  17:25:21.502424	2.047850E-1	2.335598E-3	1.629701E-3	4.703658E-4	1.671721E-4	1.080358E-2	1.309410E-3	7.407233E-3
10/19/2017  17:25:21.503424	6.413002E-1	1.278067E-2	1.428833E-2	2.566993E-3	9.153977E-3	1.720212E-3	7.844255E-3	7.247890E-3
10/19/2017  17:25:21.504424	6.557583E-1	2.437882E-3	7.522040E-3	4.703629E-3	2.254002E-3	4.269813E-3	3.279904E-3	6.208868E-3
10/19/2017  17:25:21.505424	4.081062E-1	5.163491E-3	9.972063E-3	1.759942E-3	7.136128E-3	4.877463E-4	2.345831E-3	5.662415E-4
10/19/2017  17:25:21.506424	1.811380E-1	6.121716E-3	3.824388E-3	8.242365E-3	1.595774E-3	6.975522E-3	2.008297E-3	7.322170E-3
10/19/2017  17:25:21.507424	3.623318E-1	7.168070E-5	4.941271E-3	1.750757E-3	3.514265E-3	5.614187E-3	4.573018E-4	1.064588E-3
10/19/2017  17:25:21.508424	6.567208E-1	6.442175E-3	7.656264E-3	5.636069E-3	8.224729E-3	6.570257E-3	6.443996E-3	5.540542E-4
10/19/2017  17:25:21.509424	4.065766E-1	4.342612E-3	3.749474E-3	6.965364E-3	1.118862E-3	4.900760E-4	3.409543E-4	4.449315E-3
10/19/2017  17:25:21.510424	8.623624E-2	3.886762E-3	7.532233E-3	1.546382E-3	8.432055E-3	3.998193E-4	1.913154E-3	1.025949E-2
10/19/2017  17:25:21.511424	5.035877E-3	3.203965E-3	1.311853E-3	3.276532E-3	1.816021E-4	6.781284E-3	8.680048E-4	7.456388E-3
10/19/2017  17:25:21.512424	1.993111E-2	4.756198E-3	1.114818E-3	4.353720E-3	2.021479E-3	4.560258E-3	4.991066E-3	3.547103E-3
10/19/2017  17:25:21.513424	3.591770E-1	3.512782E-3	3.379674E-3	8.067901E-3	5.385295E-3	4.854595E-3	3.404835E-3	1.564161E-2
10/19/2017  17:25:21.514424	4.050469E-2	4.612450E-3	2.201433E-3	1.883006E-2	7.634564E-3	1.034630E-2	8.075238E-5	4.181062E-3
10/19/2017  17:25:21.515424	1.973532E-1	3.462219E-3	1.046423E-2	1.103815E-2	1.021237E-2	1.460001E-3	1.125545E-2	1.080571E-2
10/19/2017  17:25:21.516424	1.409496E-1	2.665913E-3	3.504427E-3	1.264052E-2	5.115666E-3	3.678645E-3	1.537617E-3	6.046290E-3
10/19/2017  17:25:21.517424	2.116950E-1	1.758918E-4	2.618823E-3	2.409428E-3	5.306967E-3	5.645868E-3	9.304910E-4	2.047406E-4
10/19/2017  17:25:21.518424	3.342750E-1	4.795903E-5	6.184188E-3	2.944623E-3	1.908672E-2	3.056116E-3	3.884101E-3	4.630934E-3
10/19/2017  17:25:21.519424	3.423892E-2	6.529736E-3	2.346128E-3	8.862922E-3	4.346914E-3	9.234285E-3	1.444644E-3	3.191498E-3
10/19/2017  17:25:21.520424	1.041593E-1	1.991057E-3	4.553247E-3	2.390051E-3	1.458455E-2	8.969314E-3	8.903171E-4	5.059515E-5
10/19/2017  17:25:21.521424	1.952006E-1	5.832044E-4	5.836135E-3	6.060776E-3	6.157280E-3	1.879331E-3	4.750845E-3	2.105579E-3
10/19/2017  17:25:21.522424	4.112348E-1	6.237935E-3	6.597612E-3	1.925080E-3	4.105322E-3	7.665460E-3	8.110501E-4	5.148245E-3
10/19/2017  17:25:21.523424	1.365530E-1	6.547177E-3	1.793774E-3	9.808445E-4	4.105808E-3	9.894184E-3	6.419594E-3	7.971018E-3
10/19/2017  17:25:21.524424	5.534294E-1	8.600459E-3	1.283468E-3	1.951127E-3	3.395623E-3	4.077115E-3	5.733482E-4	3.348370E-3
10/19/2017  17:25:21.525424	2.459965E-1	3.329329E-3	3.020218E-3	1.542189E-2	4.935901E-3	7.497873E-3	9.300275E-3	2.757067E-3
10/19/2017  17:25:21.526424	6.396775E-2	7.525688E-3	6.285671E-3	7.420809E-3	3.681897E-3	7.457942E-3	2.204930E-3	1.303308E-2
10/19/2017  17:25:21.527424	4.139382E-4	1.025775E-2	2.476544E-3	1.930554E-2	4.557608E-4	3.739635E-3	9.509030E-3	2.567031E-3
10/19/2017  17:25:21.528424	3.336163E-1	5.297197E-3	1.086663E-2	3.258474E-3	4.050856E-3	3.436338E-3	2.419445E-3	3.515497E-3
10/19/2017  17:25:21.529424	3.978239E-2	5.008230E-3	7.777009E-3	4.512538E-3	4.937044E-3	2.350263E-4	1.510874E-3	1.112032E-2
10/19/2017  17:25:21.530424	1.777559E-2	2.893781E-3	7.796429E-3	1.295388E-3	9.918228E-4	7.239324E-3	3.545711E-3	6.069942E-3
10/19/2017  17:25:21.531424	8.174662E-2	4.118788E-3	7.491451E-4	1.128995E-3	4.101650E-3	5.514482E-3	4.879609E-3	2.150734E-3
10/19/2017  17:25:21.532424	2.917688E-1	9.097423E-3	6.843843E-3	9.861354E-4	1.410999E-2	4.600974E-3	5.611254E-3	1.365145E-3
								
10/19/2017  17:25:21.533424	2.837858E-1	2.907350E-3	8.560091E-3	8.638282E-4	5.521848E-3	5.184555E-3	3.693985E-3	3.613166E-3
10/19/2017  17:25:21.534424	8.693507E-2	1.454506E-3	1.309700E-2	3.560901E-3	9.613685E-3	3.173847E-3	8.695174E-3	7.061070E-3
10/19/2017  17:25:21.535424	1.651896E-1	6.344152E-3	6.517765E-3	6.408740E-3	1.529137E-3	6.324120E-4	2.154401E-3	1.565949E-3
10/19/2017  17:25:21.536424	1.172032E-1	9.581418E-3	3.346470E-3	3.569419E-4	5.685922E-3	9.881499E-3	5.997073E-3	5.550987E-3
10/19/2017  17:25:21.537424	2.952220E-2	1.367008E-2	4.887713E-3	2.476297E-3	1.854798E-4	9.651870E-3	4.455041E-3	5.995294E-3
10/19/2017  17:25:21.538424	3.557002E-2	3.024034E-3	1.065552E-2	3.894712E-3	8.729488E-3	6.883158E-3	9.881833E-4	4.734192E-4
10/19/2017  17:25:21.539424	3.586769E-2	1.346288E-2	7.871740E-3	6.889473E-3	6.870898E-4	4.099967E-3	4.908696E-3	3.002354E-3
10/19/2017  17:25:21.540424	4.768900E-2	1.157299E-3	1.178004E-3	4.264054E-3	3.148314E-3	3.242430E-3	1.149437E-3	2.573420E-3
10/19/2017  17:25:21.541424	9.426291E-3	7.309147E-3	1.566029E-3	1.861791E-2	9.136702E-3	4.621040E-3	9.804855E-4	2.182659E-3
10/19/2017  17:25:21.542424	7.159363E-3	1.571060E-3	7.820348E-3	2.155616E-3	4.381561E-3	1.484761E-3	4.039312E-3	1.828011E-3
10/19/2017  17:25:21.543424	3.577522E-2	7.179483E-3	5.497555E-3	2.210959E-4	1.155204E-2	5.120595E-3	5.339890E-3	7.126290E-3
10/19/2017  17:25:21.544424	8.934880E-2	1.471215E-4	2.922515E-3	8.924991E-3	3.348708E-3	3.117413E-3	1.725520E-3	2.633913E-4
10/19/2017  17:25:21.545424	1.974638E-1	9.310158E-3	2.349456E-4	2.167619E-3	1.616756E-2	2.853554E-3	3.119507E-3	6.896868E-3
10/19/2017  17:25:21.546424	4.643314E-1	2.794394E-3	4.784691E-3	4.951641E-3	5.223074E-3	2.776496E-3	6.467942E-3	1.177081E-2
10/19/2017  17:25:21.547424	4.192468E-1	1.623363E-4	7.919943E-4	5.282961E-3	1.155502E-2	2.656397E-3	2.091271E-3	6.100141E-3
10/19/2017  17:25:21.548424	5.894064E-2	6.916587E-3	3.864468E-3	4.861428E-3	7.050362E-4	8.976640E-3	7.665668E-3	2.625664E-3
10/19/2017  17:25:21.549424	5.062015E-1	1.146917E-2	5.928851E-3	5.450164E-3	5.612469E-3	8.826274E-3	7.891150E-3	2.368544E-3
10/19/2017  17:25:21.550424	1.284814E-1	5.239364E-3	2.432960E-4	9.909615E-3	1.202331E-3	6.807495E-3	3.367706E-3	8.598835E-3
10/19/2017  17:25:21.551424	3.902519E-1	6.285411E-3	6.840228E-3	6.846761E-3	8.581986E-3	1.660407E-3	2.235538E-3	6.240449E-3
10/19/2017  17:25:21.552424	4.599901E-1	6.776330E-3	6.011900E-3	2.083617E-2	4.463330E-3	9.598087E-4	4.048257E-3	4.250472E-3
10/19/2017  17:25:21.553424	6.975726E-1	3.417680E-4	8.753185E-3	8.370609E-3	7.805787E-3	7.127523E-3	3.036841E-3	1.467441E-2
10/19/2017  17:25:21.554424	5.852605E-1	6.482360E-3	6.002887E-3	1.183269E-2	7.684527E-3	4.755941E-3	4.339384E-3	6.047500E-3
10/19/2017  17:25:21.555424	1.822480E-1	1.326043E-2	7.105631E-3	2.111471E-3	5.039383E-3	1.231516E-2	1.398350E-3	1.678177E-3
10/19/2017  17:25:21.556424	2.291064E-1	2.240705E-4	5.474033E-3	1.506217E-3	1.015038E-2	8.949742E-3	9.978547E-4	4.871980E-3
10/19/2017  17:25:21.557424	1.619748E-1	1.356048E-2	2.414068E-4	1.156485E-3	9.866689E-3	2.545731E-3	5.099156E-4	6.079812E-3
10/19/2017  17:25:21.558424	2.265594E-1	7.798498E-3	6.471851E-3	7.338619E-3	5.781192E-4	2.202536E-3	8.508444E-3	9.445467E-3
10/19/2017  17:25:21.559424	3.370008E-1	1.025010E-3	8.422560E-3	2.790196E-3	1.807665E-3	1.395255E-2	2.654861E-3	7.163531E-3
10/19/2017  17:25:21.560424	8.889943E-3	3.029390E-3	6.876248E-4	4.978317E-3	1.275227E-3	9.384611E-4	1.058743E-2	8.848139E-4
10/19/2017  17:25:21.561424	2.431946E-1	2.182751E-3	9.402066E-3	4.152317E-4	5.149915E-3	9.463694E-3	2.855406E-3	2.791129E-3
10/19/2017  17:25:21.562424	8.888785E-1	5.786412E-3	6.345238E-3	6.556465E-3	5.513651E-3	6.515785E-3	7.263690E-4	6.774383E-3
10/19/2017  17:25:21.563424	6.240265E-1	1.618440E-3	1.091254E-2	4.816591E-3	9.673621E-3	1.106899E-2	3.320115E-3	1.749819E-3
10/19/2017  17:25:21.564424	3.436004E-1	2.821292E-3	5.774473E-3	1.180567E-3	7.346802E-4	6.952829E-3	1.154916E-2	5.143753E-3
10/19/2017  17:25:21.565424	1.618269E-1	7.284976E-3	1.109508E-2	3.667354E-3	7.786763E-4	1.093466E-2	6.164525E-3	5.247043E-3
								
10/19/2017  17:25:21.566424	7.851401E-1	9.952053E-3	1.473876E-3	2.679983E-3	2.957797E-3	1.268412E-2	1.831110E-4	6.019222E-3
10/19/2017  17:25:21.567424	2.873788E-1	6.286179E-4	3.373637E-3	8.323968E-3	2.088139E-3	3.191767E-3	4.751266E-4	2.352477E-3
10/19/2017  17:25:21.568424	1.405760E-1	1.260612E-2	6.718217E-3	3.143478E-3	7.778355E-3	1.460625E-3	5.025557E-3	8.298161E-3
10/19/2017  17:25:21.569424	4.679470E-2	3.587921E-5	4.486177E-3	6.974826E-3	3.659898E-3	6.403920E-3	5.228812E-4	3.567953E-3
10/19/2017  17:25:21.570424	3.819555E-1	2.695686E-3	3.843147E-3	7.271963E-3	1.176941E-2	5.363511E-3	2.007929E-3	6.498719E-3
10/19/2017  17:25:21.571424	1.623322E-1	6.675739E-3	1.402282E-2	7.981152E-3	4.095461E-3	4.411406E-3	7.023892E-3	4.829988E-3
10/19/2017  17:25:21.572424	1.259071E-1	6.113808E-4	1.273255E-3	7.806289E-3	8.133965E-3	3.545618E-3	4.096142E-3	1.239723E-3
10/19/2017  17:25:21.573424	7.959949E-2	7.003426E-3	6.411794E-4	3.502278E-3	7.216030E-3	1.139786E-2	9.848552E-4	5.050407E-3
10/19/2017  17:25:21.574424	1.732520E-1	2.625994E-3	1.170990E-4	3.604039E-3	4.936024E-3	3.546100E-3	2.401345E-4	1.047894E-3
10/19/2017  17:25:21.575424	1.427535E-1	5.781868E-3	4.009956E-3	6.358435E-3	3.469257E-3	2.335676E-3	2.511244E-3	2.380862E-3
10/19/2017  17:25:21.576424	4.193649E-3	3.402593E-3	1.070322E-2	1.509150E-3	9.413297E-3	2.098216E-3	8.735159E-3	3.308938E-3
10/19/2017  17:25:21.577424	9.612395E-2	5.034880E-3	7.889495E-3	2.131307E-3	3.045908E-4	3.516727E-3	4.426576E-3	5.160311E-3
10/19/2017  17:25:21.578424	5.626221E-2	8.813497E-3	5.504422E-3	6.896383E-3	8.883176E-3	9.993581E-4	5.729791E-3	2.328273E-3
10/19/2017  17:25:21.579424	1.402408E-2	1.754320E-3	2.971384E-3	3.594583E-3	2.672983E-3	3.529261E-3	6.312617E-3	5.383164E-3
10/19/2017  17:25:21.580424	1.497340E-2	2.752694E-3	3.986031E-3	1.189656E-2	8.212421E-5	9.569733E-3	2.106717E-3	2.093420E-3
10/19/2017  17:25:21.581424	1.998315E-2	7.512950E-3	4.183919E-3	1.949662E-2	6.892955E-3	8.068684E-3	1.058872E-3	6.128476E-3
10/19/2017  17:25:21.582424	1.018323E-2	1.665816E-3	5.593999E-3	4.569585E-3	1.490917E-3	9.858505E-3	7.650117E-3	4.441158E-3
10/19/2017  17:25:21.583424	2.279943E-2	6.052560E-3	2.052422E-3	2.186318E-3	5.522355E-3	1.398861E-3	7.757316E-3	5.162859E-3
10/19/2017  17:25:21.584424	7.305972E-2	2.480246E-3	1.236843E-2	7.081538E-3	1.653161E-3	1.368622E-3	5.315990E-3	7.546611E-3
10/19/2017  17:25:21.585424	9.007021E-2	2.017393E-4	2.398480E-3	6.077855E-3	5.255367E-3	3.313461E-3	1.122435E-3	3.437370E-3
10/19/2017  17:25:21.586424	3.494079E-1	6.508112E-3	8.654482E-3	7.329849E-3	1.072490E-3	6.226090E-3	4.156007E-3	6.812272E-3
10/19/2017  17:25:21.587424	4.427486E-2	1.927901E-3	4.483392E-3	1.481639E-3	6.375732E-3	2.003864E-3	3.495584E-3	2.888113E-4
10/19/2017  17:25:21.588424	1.436703E-1	1.466667E-3	7.232740E-3	8.054390E-3	1.365992E-2	1.157888E-3	7.204897E-3	2.284892E-3
10/19/2017  17:25:21.589424	1.561554E-1	1.067447E-3	8.448296E-3	6.994197E-3	3.139882E-3	5.572396E-3	3.078538E-3	4.051689E-3
10/19/2017  17:25:21.590424	2.963824E-1	6.599083E-4	1.508169E-2	4.123742E-3	8.934582E-3	2.279151E-3	2.207547E-3	7.301170E-3
10/19/2017  17:25:21.591424	4.522837E-1	6.781331E-3	2.707853E-4	1.174011E-3	7.344781E-5	2.977359E-3	1.616237E-3	4.967733E-3
10/19/2017  17:25:21.592424	4.074144E-2	4.352936E-3	7.024939E-3	3.138137E-3	6.425650E-3	1.526902E-2	5.443925E-3	1.306788E-3
10/19/2017  17:25:21.593424	6.705758E-2	8.463643E-3	5.104721E-3	4.732624E-3	2.342368E-5	4.675061E-3	1.474140E-3	3.665929E-3
10/19/2017  17:25:21.594424	1.177591E-1	4.422535E-3	8.389181E-4	1.568501E-3	4.695062E-3	2.709544E-3	1.469540E-3	1.172355E-2
10/19/2017  17:25:21.595424	1.015130E-1	8.028624E-4	7.778383E-4	1.219312E-2	1.372432E-3	7.264092E-3	3.539915E-3	2.420201E-3
10/19/2017  17:25:21.596424	2.415540E-1	6.303248E-3	7.191436E-3	1.983456E-3	5.415621E-3	7.683678E-3	4.875749E-3	1.249165E-2
10/19/2017  17:25:21.597424	3.303747E-1	4.682733E-3	4.996944E-3	1.414935E-2	5.843771E-4	9.839243E-4	5.602433E-3	4.026233E-3
10/19/2017  17:25:21.598424	1.526875E-1	3.169560E-3	9.973456E-4	7.810021E-4	5.921483E-3	7.175727E-3	3.675059E-3	4.483408E-3
								
10/19/2017  17:25:21.599424	4.901125E-2	4.359218E-3	4.133302E-3	6.946759E-4	2.680788E-3	2.648207E-3	9.745886E-5	3.144460E-4
10/19/2017  17:25:21.600424	1.579742E-2	4.997775E-3	1.199620E-3	7.078959E-3	2.301495E-3	2.936078E-3	2.878553E-3	7.106004E-3
10/19/2017  17:25:21.601424	2.673520E-1	5.603342E-3	7.701729E-3	5.291729E-4	2.083600E-4	3.920941E-4	9.130000E-3	1.217685E-2
10/19/2017  17:25:21.602424	1.842189E-1	6.711648E-5	5.562635E-3	2.089025E-3	6.677874E-3	1.153439E-2	6.780650E-3	8.806337E-3
10/19/2017  17:25:21.603424	1.739239E-2	2.581766E-3	5.691581E-4	4.048683E-4	4.853950E-3	3.849892E-4	3.844443E-3	8.099809E-3
10/19/2017  17:25:21.604424	3.226684E-2	6.454934E-3	4.986961E-3	6.466283E-3	1.018631E-3	1.834942E-3	5.277022E-4	3.647715E-3
10/19/2017  17:25:21.605424	1.975320E-2	4.633225E-3	7.956932E-3	1.839501E-3	7.381916E-3	5.493886E-3	2.419883E-3	3.392471E-3
10/19/2017  17:25:21.606424	1.605200E-1	3.086661E-3	7.560319E-3	1.461098E-2	8.068576E-4	3.527745E-3	7.968250E-3	3.130513E-3
10/19/2017  17:25:21.607424	1.718157E-1	9.001773E-3	4.722732E-3	6.390684E-3	2.509404E-3	1.105381E-2	1.390776E-3	2.864851E-3
10/19/2017  17:25:21.608424	1.835036E-1	4.371090E-3	1.056943E-2	4.137381E-3	7.223906E-3	1.028981E-2	5.965408E-3	6.915223E-3
10/19/2017  17:25:21.609424	2.588646E-1	3.478152E-3	4.369240E-4	1.432406E-3	3.097832E-3	3.691460E-3	2.556158E-3	7.391813E-3
10/19/2017  17:25:21.610424	1.661025E-3	1.822993E-3	1.114072E-2	5.420242E-3	6.469526E-3	6.591864E-4	1.295636E-2	9.259384E-4
10/19/2017  17:25:21.611424	1.361939E-1	5.232049E-3	1.250817E-2	2.869089E-3	2.080584E-3	2.777265E-3	2.579867E-3	5.942929E-3
10/19/2017  17:25:21.612424	8.195695E-1	5.741635E-3	8.569041E-3	1.304423E-2	3.103222E-3	1.281576E-2	7.892604E-3	1.983824E-3
10/19/2017  17:25:21.613424	4.257389E-1	1.012361E-2	7.697262E-3	1.264783E-2	2.857222E-3	2.158203E-3	1.661195E-3	3.344515E-3
10/19/2017  17:25:21.614424	1.783740E-1	4.529558E-3	1.863652E-3	3.395426E-4	2.756833E-3	1.359438E-3	7.916807E-5	1.984642E-3
10/19/2017  17:25:21.615424	3.590382E-1	1.064590E-2	2.353050E-3	9.367705E-5	1.343306E-2	8.214262E-3	1.170635E-2	1.284421E-3
10/19/2017  17:25:21.616424	1.022844E-1	3.830386E-3	9.909070E-3	6.579169E-3	5.380202E-3	8.504155E-3	1.109019E-2	7.939437E-3
10/19/2017  17:25:21.617424	1.595529E-1	5.255039E-3	7.573680E-3	4.597303E-3	5.010186E-3	1.049433E-2	6.319130E-4	5.914987E-3
10/19/2017  17:25:21.618424	3.707336E-1	4.233265E-4	3.999422E-3	1.389715E-3	7.001093E-4	4.940416E-3	1.741834E-3	1.371422E-4
10/19/2017  17:25:21.619424	7.209741E-2	8.460185E-3	1.005454E-2	2.966775E-3	8.215199E-3	1.509179E-3	9.518199E-4	1.967461E-3
10/19/2017  17:25:21.620424	2.281074E-1	6.585701E-4	5.446314E-3	1.603350E-3	8.922207E-4	6.160079E-3	2.857090E-3	3.108711E-3
10/19/2017  17:25:21.621424	3.410358E-1	7.228807E-3	3.369898E-3	1.030811E-2	1.226618E-3	1.503610E-3	4.099400E-3	8.803423E-3
10/19/2017  17:25:21.622424	5.542666E-1	1.641214E-2	6.966743E-3	7.647832E-3	5.108009E-4	3.896718E-3	1.680807E-3	4.526841E-4
10/19/2017  17:25:21.623424	9.621546E-2	1.053189E-2	7.652018E-3	3.259458E-3	4.381041E-3	2.060954E-2	1.469130E-3	1.143188E-2
10/19/2017  17:25:21.624424	1.030106E-1	1.655280E-2	3.485399E-3	1.720234E-4	1.637388E-2	1.475499E-3	8.952882E-4	4.938683E-3
10/19/2017  17:25:21.625424	3.348933E-2	1.457511E-3	3.107298E-4	1.051541E-4	1.735456E-3	1.625135E-3	1.770915E-3	2.906846E-3
10/19/2017  17:25:21.626424	4.235937E-3	7.192424E-3	1.453846E-4	8.696013E-3	3.888541E-4	1.677224E-3	7.934601E-3	2.389464E-3
10/19/2017  17:25:21.627424	9.607700E-2	1.070258E-2	6.470197E-3	2.815955E-3	3.267601E-4	1.686020E-3	1.208251E-3	4.678753E-3
10/19/2017  17:25:21.628424	7.228362E-2	5.870811E-3	2.275911E-3	4.524014E-3	7.760547E-3	8.133550E-3	3.722457E-3	3.049851E-3
10/19/2017  17:25:21.629424	9.566682E-2	6.447934E-3	4.205948E-3	9.196657E-4	1.282325E-2	8.107600E-3	4.972573E-3	2.625790E-3
10/19/2017  17:25:21.630424	2.754440E-2	7.280058E-5	7.607491E-3	1.033161E-2	2.496859E-2	9.564282E-3	5.132903E-3	1.095724E-2
10/19/2017  17:25:21.631424	9.775772E-2	2.396987E-3	5.409286E-3	7.978585E-3	4.217863E-3	1.886042E-3	2.942697E-3	5.680421E-3
								
10/19/2017  17:25:21.632424	7.250177E-2	1.938493E-3	2.907096E-3	2.947133E-3	1.210476E-2	7.218931E-3	1.293723E-2	1.239683E-2
10/19/2017  17:25:21.633424	1.842886E-1	3.701554E-3	1.309245E-2	8.774008E-3	2.098066E-3	1.686139E-3	9.405003E-7	9.296653E-3
10/19/2017  17:25:21.634424	1.734188E-1	8.137303E-3	2.524455E-3	2.634227E-3	1.273722E-3	1.576133E-3	5.068928E-3	3.504786E-3
10/19/2017  17:25:21.635424	1.309070E-1	3.313450E-3	7.418580E-3	4.378532E-3	5.989444E-4	1.008470E-2	8.046863E-5	9.082857E-3
10/19/2017  17:25:21.636424	2.098633E-1	6.836342E-3	8.293900E-4	1.595387E-3	2.105762E-3	2.796730E-3	2.744240E-3	9.142042E-3
10/19/2017  17:25:21.637424	8.550030E-2	3.393688E-3	1.058609E-2	9.270218E-3	8.308782E-3	4.765460E-3	1.117608E-2	2.298400E-3
10/19/2017  17:25:21.638424	1.842636E-1	2.385902E-3	9.698402E-3	1.362135E-2	5.904864E-3	3.540899E-3	1.028230E-2	4.909287E-3
10/19/2017  17:25:21.639424	2.215539E-1	8.637462E-3	6.529571E-3	3.592609E-3	2.617320E-3	3.464899E-4	1.459285E-2	9.073982E-4
10/19/2017  17:25:21.640424	5.579029E-1	6.284887E-3	1.578835E-2	2.689172E-3	4.344163E-3	2.347865E-3	3.800086E-3	2.890864E-3
10/19/2017  17:25:21.641424	9.597381E-2	2.129615E-3	1.202671E-4	1.901654E-3	3.249642E-3	2.800733E-3	6.323937E-3	6.331560E-3
10/19/2017  17:25:21.642424	3.026808E-2	9.627945E-3	6.895434E-3	3.382454E-3	2.322046E-3	4.408623E-3	3.934009E-4	1.506015E-4
10/19/2017  17:25:21.643424	1.092641E-2	1.755383E-3	5.187384E-3	2.094505E-3	1.545211E-3	1.405346E-3	4.738379E-3	5.437610E-4
10/19/2017  17:25:21.644424	2.353869E-2	5.549696E-3	1.570690E-3	5.338354E-3	1.424114E-2	1.225544E-3	3.323758E-3	5.170029E-3
10/19/2017  17:25:21.645424	9.099819E-1	4.944087E-3	9.747689E-3	5.604781E-3	3.191576E-3	3.266269E-3	2.191467E-3	6.145438E-3
10/19/2017  17:25:21.646424	6.984115E-3	3.660824E-3	1.583761E-4	8.980598E-3	1.347452E-2	1.414603E-4	6.094674E-3	2.051394E-3
10/19/2017  17:25:21.647424	1.326041E-1	2.573382E-3	4.629145E-3	1.320444E-2	3.533178E-3	9.087337E-3	2.168539E-3	5.691448E-3
10/19/2017  17:25:21.648424	6.747002E-1	2.653712E-3	1.412176E-3	5.964881E-3	6.975324E-3	1.511393E-2	7.231396E-3	4.926029E-3
10/19/2017  17:25:21.649424	3.900287E-1	1.312112E-2	5.524933E-3	8.709852E-3	3.856763E-3	9.353244E-3	5.025608E-3	5.786021E-4
10/19/2017  17:25:21.650424	3.303372E-1	8.534195E-3	6.885243E-3	3.793028E-3	6.758253E-4	1.797068E-2	3.304792E-3	1.980335E-3
10/19/2017  17:25:21.651424	1.153900E-2	8.598289E-3	2.543908E-3	2.122159E-3	1.134257E-2	2.544622E-3	7.037362E-3	3.748882E-3
10/19/2017  17:25:21.652424	1.441601E-1	1.093938E-3	5.040516E-3	6.329752E-3	7.482569E-3	8.589246E-3	2.952112E-3	5.937564E-3
10/19/2017  17:25:21.653424	4.983347E-2	2.103787E-2	2.669884E-3	2.617137E-3	9.903868E-3	3.914845E-3	2.280015E-3	3.219554E-4
10/19/2017  17:25:21.654424	8.910853E-2	8.551089E-5	4.872445E-3	2.325888E-3	2.530370E-3	1.814277E-3	5.313175E-4	1.639584E-3
10/19/2017  17:25:21.655424	3.724244E-1	1.950572E-3	1.008698E-2	1.440879E-2	1.396951E-3	8.045579E-3	3.937518E-3	7.841768E-3
10/19/2017  17:25:21.656424	1.482776E-1	3.292753E-3	2.554662E-3	5.117584E-3	1.693447E-3	3.538852E-3	5.983923E-3	5.686317E-3
10/19/2017  17:25:21.657424	7.184722E-2	2.569096E-4	9.519518E-3	1.486005E-2	2.602001E-3	2.041644E-3	1.070222E-2	9.094969E-3
10/19/2017  17:25:21.658424	3.916203E-1	5.016334E-3	1.618274E-3	2.713019E-3	5.295370E-3	4.908888E-4	5.840131E-3	6.379159E-3
10/19/2017  17:25:21.659424	2.446214E-1	8.260728E-3	1.262801E-3	9.002373E-3	6.458989E-3	1.067630E-2	6.734869E-3	8.425257E-3
10/19/2017  17:25:21.660424	5.695364E-1	5.541479E-4	3.308409E-3	2.328309E-3	4.860392E-3	1.206551E-3	9.242759E-3	5.654702E-3
10/19/2017  17:25:21.661424	7.820862E-1	2.553632E-3	3.306449E-4	2.597117E-3	5.168968E-3	1.059759E-3	1.841784E-4	6.963029E-3
10/19/2017  17:25:21.662424	4.711545E-1	6.022838E-3	8.293571E-3	1.899923E-2	8.286805E-4	1.702343E-3	2.688620E-3	9.783141E-3
10/19/2017  17:25:21.663424	1.103519E-1	4.209734E-4	1.182501E-2	4.659799E-3	5.116850E-3	7.957388E-3	6.562732E-3	8.059036E-3
10/19/2017  17:25:21.664424	1.492017E-1	9.402633E-3	4.195490E-3	8.583212E-3	7.963964E-3	7.785089E-3	6.910559E-3	3.207658E-3
								
10/19/2017  17:25:21.665424	3.366090E-1	1.114508E-2	7.978216E-3	8.891574E-3	9.583950E-4	1.215145E-2	3.588426E-4	2.546259E-3
10/19/2017  17:25:21.666424	1.793138E-1	5.399938E-3	1.261007E-3	6.544623E-3	8.513624E-3	4.380988E-3	6.561081E-3	2.097990E-4
10/19/2017  17:25:21.667424	1.445736E-1	4.147421E-3	2.827263E-3	1.978398E-4	1.598850E-4	1.430434E-3	4.702710E-4	2.121976E-3
10/19/2017  17:25:21.668424	2.831367E-1	1.246382E-3	2.682275E-3	6.594760E-3	1.207146E-4	3.413511E-3	9.011025E-3	3.687165E-3
10/19/2017  17:25:21.669424	2.976300E-1	1.412374E-3	1.303424E-2	4.244847E-4	8.308996E-3	2.539500E-3	4.692175E-3	2.455743E-3
10/19/2017  17:25:21.670424	5.692263E-2	7.587957E-3	1.711450E-3	3.131190E-4	1.196816E-3	8.998245E-3	1.437214E-2	7.223579E-3
10/19/2017  17:25:21.671424	1.286777E-1	1.275141E-3	9.316642E-3	1.911411E-3	1.237852E-2	6.083577E-3	5.221586E-3	3.369482E-3
10/19/2017  17:25:21.672424	1.653935E-2	7.622135E-3	6.976138E-3	3.389508E-3	2.589816E-3	9.294844E-3	4.017182E-3	2.175685E-3
10/19/2017  17:25:21.673424	3.362600E-2	3.261427E-3	1.179141E-2	4.392137E-3	1.920674E-3	1.134967E-2	8.215754E-4	1.170859E-3
10/19/2017  17:25:21.674424	1.617798E-1	4.475538E-3	1.224298E-3	9.598750E-3	5.144182E-3	6.435738E-4	5.828653E-3	3.978474E-3
10/19/2017  17:25:21.675424	2.900297E-2	2.972355E-3	6.316996E-3	2.751058E-4	3.500843E-3	1.574853E-2	2.611662E-3	3.237448E-3
10/19/2017  17:25:21.676424	1.906985E-1	1.723026E-3	5.459326E-3	9.785784E-4	6.519040E-3	2.171637E-3	2.117886E-3	2.592774E-3
10/19/2017  17:25:21.677424	4.033072E-1	1.456481E-3	1.113197E-2	3.689577E-3	6.958058E-3	1.069733E-2	8.150899E-3	2.281510E-3
10/19/2017  17:25:21.678424	2.812226E-1	1.667387E-2	3.933856E-3	7.714634E-3	8.204837E-3	5.565374E-3	1.322155E-3	5.659825E-3
10/19/2017  17:25:21.679424	9.296485E-2	1.189843E-3	5.043312E-3	6.962719E-3	2.878966E-3	3.751330E-3	1.528793E-3	8.465718E-4
10/19/2017  17:25:21.680424	3.171774E-1	7.549638E-3	5.215137E-3	1.323718E-4	6.397369E-3	2.088861E-3	5.701465E-3	1.202444E-2
10/19/2017  17:25:21.681424	1.015531E+0	1.000823E-3	4.886055E-3	3.152229E-3	2.204257E-3	2.270021E-4	2.326275E-3	6.599116E-3
10/19/2017  17:25:21.682424	8.906850E-2	8.083674E-3	3.264800E-3	9.348600E-4	6.165668E-3	6.799817E-3	5.829892E-3	2.210808E-4
10/19/2017  17:25:21.683424	3.896889E-1	3.023313E-3	6.215768E-3	5.842835E-3	4.230333E-3	2.949347E-3	1.581601E-3	2.249607E-3
10/19/2017  17:25:21.684424	2.095619E-1	8.742971E-3	2.818212E-3	9.161349E-3	3.637915E-3	5.872243E-5	5.912764E-3	1.042498E-2
10/19/2017  17:25:21.685424	3.713619E-2	4.957430E-4	2.800598E-3	1.547083E-2	2.659848E-3	4.172792E-3	8.919398E-3	1.438170E-3
10/19/2017  17:25:21.686424	6.240760E-3	6.721340E-4	1.137571E-2	2.333744E-3	6.162504E-3	1.626895E-3	2.052519E-3	7.776482E-3
10/19/2017  17:25:21.687424	2.488371E-2	9.423347E-3	4.119125E-3	1.079178E-2	1.892347E-3	5.754355E-3	9.944051E-3	5.509267E-3
10/19/2017  17:25:21.688424	6.406587E-2	6.656690E-3	3.436911E-3	1.306739E-3	3.469375E-3	8.472809E-3	4.294153E-3	7.209670E-4
10/19/2017  17:25:21.689424	6.236309E-2	4.311402E-3	6.497874E-5	7.723833E-3	5.041711E-3	7.723575E-4	1.009165E-2	8.968965E-4
10/19/2017  17:25:21.690424	1.526171E-1	3.420346E-3	1.929719E-3	3.444759E-3	1.028681E-2	5.273316E-3	9.516845E-3	1.021678E-3
10/19/2017  17:25:21.691424	1.248018E-1	4.925881E-4	1.164627E-3	9.212910E-3	1.571051E-3	1.045758E-2	2.287089E-5	7.576994E-3
10/19/2017  17:25:21.692424	1.452844E-1	5.423629E-4	9.485354E-4	8.638667E-3	1.418469E-3	7.519532E-4	4.690396E-3	5.492420E-3
10/19/2017  17:25:21.693424	3.579216E-2	9.207222E-3	8.403710E-3	8.112403E-3	7.766604E-3	2.332089E-3	1.005181E-2	2.744981E-3
10/19/2017  17:25:21.694424	4.976158E-2	6.388031E-3	6.128814E-3	9.979599E-3	1.175469E-3	7.470617E-3	4.983134E-4	6.406457E-3
10/19/2017  17:25:21.695424	1.113475E-1	8.921385E-3	1.257150E-4	3.163303E-3	3.629862E-3	7.739915E-3	1.290541E-2	4.427122E-3
10/19/2017  17:25:21.696424	2.788351E-1	2.018452E-3	4.653867E-3	4.623036E-3	6.057732E-3	3.216526E-3	1.767301E-3	6.114996E-4
10/19/2017  17:25:21.697424	4.121690E-1	1.008670E-3	5.562895E-3	1.157026E-3	6.724975E-3	1.981612E-3	1.482301E-3	4.363669E-3
								
10/19/2017  17:25:21.698424	1.681202E-1	3.162905E-3	5.962656E-3	7.721140E-4	6.011683E-3	5.170751E-3	1.223729E-3	1.209705E-2
10/19/2017  17:25:21.699424	6.389147E-2	2.645249E-4	7.005488E-3	1.701528E-3	2.441427E-4	2.864150E-3	1.167044E-3	1.592224E-4
10/19/2017  17:25:21.700424	5.465756E-1	3.296822E-4	1.172397E-2	9.171073E-4	4.266825E-4	8.750723E-3	3.647525E-3	6.844606E-3
10/19/2017  17:25:21.701424	1.791045E-1	1.115763E-2	1.606940E-3	7.083251E-3	3.772124E-3	7.046516E-3	4.792559E-3	4.881206E-3
10/19/2017  17:25:21.702424	1.207955E-1	5.468431E-3	5.799926E-3	1.778912E-3	1.061921E-4	2.027187E-2	1.066651E-3	1.085717E-3
10/19/2017  17:25:21.703424	6.708117E-2	1.404756E-2	8.749269E-3	1.624766E-3	1.555384E-2	1.400339E-3	8.166494E-3	1.036108E-3
10/19/2017  17:25:21.704424	1.689368E-1	3.754045E-3	4.004420E-3	1.460790E-3	2.315333E-3	2.417730E-4	7.980247E-3	7.445777E-3
10/19/2017  17:25:21.705424	1.412441E-1	1.245650E-2	1.770738E-3	3.451389E-3	9.524542E-3	1.378655E-2	1.171962E-3	7.400469E-3
10/19/2017  17:25:21.706424	4.117339E-1	8.846753E-3	8.028140E-3	1.121147E-2	4.654636E-3	6.047856E-3	7.744639E-3	1.131024E-2
10/19/2017  17:25:21.707424	5.230455E-1	4.386323E-3	5.685941E-3	9.666248E-3	9.888388E-3	2.378620E-3	7.824851E-3	1.021619E-2
10/19/2017  17:25:21.708424	6.928295E-1	3.336606E-3	4.930356E-3	1.636242E-3	2.589361E-3	1.789026E-3	1.035365E-3	1.022007E-2
10/19/2017  17:25:21.709424	8.179907E-1	8.739168E-3	5.763355E-4	5.361344E-3	9.309553E-3	1.275311E-3	8.251247E-3	7.637856E-3
10/19/2017  17:25:21.710424	7.043472E-1	5.071141E-3	1.690936E-4	1.383726E-2	6.329889E-3	1.326398E-3	1.633908E-3	1.043107E-3
10/19/2017  17:25:21.711424	1.736036E-1	8.346102E-3	4.479861E-3	5.363632E-3	4.301439E-3	1.162739E-3	3.204753E-3	9.414182E-3
10/19/2017  17:25:21.712424	2.188950E-1	4.593376E-4	1.162835E-3	8.143004E-3	3.887155E-3	7.262821E-4	6.441488E-5	2.271064E-3
10/19/2017  17:25:21.713424	3.587237E-1	3.078127E-4	3.429499E-3	7.537896E-3	9.922258E-4	3.960152E-3	2.210676E-3	1.276573E-2
10/19/2017  17:25:21.714424	1.875548E-1	4.505886E-3	2.074019E-3	1.202955E-2	5.430987E-3	6.924073E-4	8.069234E-3	3.038511E-4
10/19/2017  17:25:21.715424	1.141152E-1	2.998654E-3	5.958311E-3	4.744146E-3	1.057023E-3	4.789879E-3	5.427634E-3	2.241184E-3
10/19/2017  17:25:21.716424	1.560985E-1	9.038742E-3	2.002378E-3	1.663295E-2	1.408725E-3	5.437050E-3	5.400941E-3	8.319977E-3
10/19/2017  17:25:21.717424	3.974875E-1	2.126168E-3	5.274845E-3	1.509084E-3	3.814056E-3	3.920245E-3	2.210157E-3	8.007718E-3
10/19/2017  17:25:21.718424	3.238285E-1	7.198870E-4	5.964435E-3	1.569098E-2	9.741099E-3	3.843920E-3	6.318960E-3	3.402807E-3
10/19/2017  17:25:21.719424	2.064249E-1	3.742660E-3	4.014696E-3	5.133665E-3	7.084221E-3	2.799137E-3	6.845922E-3	9.339913E-3
10/19/2017  17:25:21.720424	8.488205E-2	4.621940E-3	1.928177E-3	2.432236E-2	1.668381E-3	4.080609E-3	6.898425E-3	6.719863E-3
10/19/2017  17:25:21.721424	7.033952E-2	7.929460E-3	1.263865E-2	2.508082E-3	5.767225E-3	2.645573E-3	8.528136E-3	1.976373E-3
10/19/2017  17:25:21.722424	2.875702E-1	6.507736E-4	6.822482E-3	3.590871E-4	1.985991E-3	2.853445E-3	1.928537E-2	4.493363E-4
10/19/2017  17:25:21.723424	3.337524E-1	3.993029E-3	8.508579E-3	4.581282E-3	8.197998E-4	1.750194E-2	6.237438E-3	2.178789E-3
10/19/2017  17:25:21.724424	4.657408E-2	1.146059E-2	6.228602E-3	3.094899E-3	4.959959E-3	1.325104E-3	9.269980E-3	1.847116E-3
10/19/2017  17:25:21.725424	3.332947E-2	3.159877E-3	6.497155E-3	8.929802E-3	5.529779E-3	8.283299E-3	6.727349E-3	4.924467E-3
10/19/2017  17:25:21.726424	2.666688E-2	2.814149E-3	1.916193E-3	8.534593E-3	5.176145E-3	8.392012E-3	6.724974E-3	3.062372E-3
10/19/2017  17:25:21.727424	9.575122E-2	2.491691E-3	1.653380E-2	5.144096E-3	6.202611E-3	5.938331E-3	6.583253E-3	2.790860E-3
10/19/2017  17:25:21.728424	8.851840E-2	1.082499E-2	1.260433E-2	2.474059E-3	2.353844E-3	4.754863E-3	7.286414E-3	2.617791E-3
10/19/2017  17:25:21.729424	4.551136E-2	3.080047E-3	7.128631E-3	1.315961E-3	8.135333E-3	2.089250E-2	3.169187E-3	8.896724E-3
10/19/2017  17:25:21.730424	3.258692E-1	1.294755E-2	1.461952E-3	3.958096E-3	3.252283E-3	8.598602E-4	4.251737E-3	6.557307E-3
								
10/19/2017  17:25:21.731424	2.281286E-1	4.323070E-3	1.115952E-3	5.469710E-3	6.947065E-3	7.925927E-3	7.622533E-4	2.403455E-3
10/19/2017  17:25:21.732424	1.284498E-1	1.014130E-2	8.260495E-4	2.024541E-3	3.190459E-3	1.919988E-3	3.549588E-4	3.588189E-3
10/19/2017  17:25:21.733424	1.633596E-1	3.100667E-3	1.573411E-3	9.166376E-3	2.519441E-3	6.186194E-3	2.447853E-5	8.721295E-3
10/19/2017  17:25:21.734424	3.117334E-1	4.364167E-3	7.538763E-3	3.801308E-3	4.088235E-3	2.525300E-3	8.867534E-3	4.364054E-3
10/19/2017  17:25:21.735424	5.841232E-1	7.894946E-3	2.818897E-3	6.786828E-3	3.635373E-3	2.376162E-3	4.077289E-3	9.236929E-3
10/19/2017  17:25:21.736424	7.068148E-2	1.260463E-3	5.082497E-3	1.416480E-2	1.776330E-3	3.629087E-3	1.742019E-3	5.009258E-3
10/19/2017  17:25:21.737424	4.644276E-1	1.423794E-3	1.058990E-2	7.073258E-3	5.581348E-3	2.132611E-3	5.884118E-3	4.318022E-3
10/19/2017  17:25:21.738424	3.103293E-1	5.457465E-3	3.290162E-3	2.589886E-3	6.165337E-4	1.052502E-2	8.613060E-3	3.679566E-3
10/19/2017  17:25:21.739424	1.399021E-1	3.786715E-3	4.286872E-3	5.105428E-3	1.401365E-3	5.288403E-3	6.204687E-4	5.251282E-3
10/19/2017  17:25:21.740424	7.451360E-1	1.935564E-3	3.075942E-3	3.954121E-3	1.456170E-2	5.238851E-3	7.998840E-4	1.048185E-2
10/19/2017  17:25:21.741424	7.137434E-1	3.842496E-3	1.028415E-4	1.158782E-2	3.764430E-3	3.984399E-3	5.239115E-3	5.671572E-3
10/19/2017  17:25:21.742424	4.068681E-1	5.062319E-3	2.401038E-4	1.398373E-3	4.207256E-3	5.079827E-3	3.898483E-3	6.679364E-3
10/19/2017  17:25:21.743424	7.609196E-2	3.554177E-3	8.978818E-3	3.904708E-3	5.451943E-3	8.364928E-4	3.719152E-3	2.030594E-3
10/19/2017  17:25:21.744424	1.814822E-1	1.321966E-4	2.668758E-4	1.036035E-3	3.939671E-3	2.904111E-3	1.754146E-3	4.703643E-3
10/19/2017  17:25:21.745424	1.910644E-1	1.099457E-2	6.938657E-3	6.647407E-3	2.654690E-3	8.573159E-3	3.459001E-3	2.812893E-3
10/19/2017  17:25:21.746424	1.759141E-1	3.083798E-3	6.385812E-4	9.137695E-3	7.077555E-3	2.878309E-3	4.518321E-3	5.219627E-3
10/19/2017  17:25:21.747424	1.796807E-1	2.303362E-3	6.868241E-3	7.197666E-3	7.999051E-4	6.717061E-3	7.303868E-4	4.351851E-3
10/19/2017  17:25:21.748424	1.056533E-1	1.642477E-3	1.939887E-3	9.668659E-4	5.914200E-3	5.625410E-4	4.228987E-3	3.573129E-3
10/19/2017  17:25:21.749424	1.273093E-1	1.089483E-3	1.745550E-3	4.031111E-3	3.588771E-4	1.726374E-3	5.305011E-3	2.878252E-3
10/19/2017  17:25:21.750424	1.279811E-1	2.791740E-3	1.234856E-2	9.885212E-4	1.601825E-3	5.351262E-3	1.184801E-2	2.262112E-3
10/19/2017  17:25:21.751424	1.280939E-1	1.339515E-2	4.292439E-3	5.247332E-3	7.417508E-4	9.221312E-3	8.684680E-3	4.755659E-3
10/19/2017  17:25:21.752424	9.489901E-2	7.159895E-3	1.747999E-3	1.592271E-3	8.606913E-3	6.324411E-3	5.786335E-3	1.213291E-3
10/19/2017  17:25:21.753424	9.914044E-2	6.344327E-3	1.038705E-2	1.127757E-3	6.312605E-3	4.175964E-4	3.092724E-3	3.314824E-3
10/19/2017  17:25:21.754424	6.497470E-2	7.198796E-3	5.439234E-3	5.212097E-3	8.690204E-3	5.316692E-3	7.749219E-4	6.842789E-3
10/19/2017  17:25:21.755424	1.510072E-2	1.037774E-3	2.869712E-3	3.597564E-3	7.348434E-3	6.495446E-3	5.599799E-3	6.895764E-3
10/19/2017  17:25:21.756424	5.576439E-3	3.042061E-3	4.214278E-3	6.385143E-3	1.427838E-2	3.716770E-3	1.533298E-2	9.555795E-5
10/19/2017  17:25:21.757424	2.542460E-2	4.348580E-3	2.614599E-3	1.112722E-2	3.022263E-3	4.397775E-3	8.688628E-3	4.869081E-3
10/19/2017  17:25:21.758424	3.948641E-2	7.874328E-3	7.339212E-3	1.121529E-3	2.168789E-4	2.483885E-3	8.656657E-4	8.276804E-3
10/19/2017  17:25:21.759424	3.773414E-2	9.485756E-4	5.565014E-3	3.462805E-3	9.022229E-3	3.385816E-3	7.781908E-3	3.904916E-3
10/19/2017  17:25:21.760424	2.086900E-2	7.903721E-4	1.879972E-3	2.876803E-3	2.011676E-4	1.615106E-2	1.677991E-3	3.734549E-3
10/19/2017  17:25:21.761424	4.881538E-2	1.662177E-2	3.450282E-3	1.961789E-3	4.691889E-3	9.508677E-3	5.916640E-4	9.058962E-3
10/19/2017  17:25:21.762424	4.471215E-2	4.023112E-3	2.078704E-3	1.160571E-3	5.559536E-3	6.583348E-5	6.469826E-3	2.665917E-3
10/19/2017  17:25:21.763424	3.848313E-2	7.980162E-3	4.881205E-4	1.203424E-2	1.138832E-2	5.430138E-4	4.452894E-4	1.319156E-2
								
10/19/2017  17:25:21.764424	1.725833E-1	4.034480E-3	4.189836E-3	2.281141E-3	2.900727E-3	7.402337E-3	1.166185E-3	3.564631E-3
10/19/2017  17:25:21.765424	5.839436E-2	1.127862E-3	7.733867E-3	4.787493E-3	2.066873E-3	3.417301E-3	1.249763E-2	6.836437E-3
10/19/2017  17:25:21.766424	1.134440E-1	6.015239E-3	1.340353E-3	1.179876E-2	3.129154E-3	3.896431E-3	7.134959E-4	2.385972E-3
10/19/2017  17:25:21.767424	7.696631E-1	2.252851E-3	1.375341E-3	5.353204E-3	2.572356E-4	3.169670E-4	8.499545E-4	5.282396E-3
10/19/2017  17:25:21.768424	2.069167E-1	2.731578E-3	5.102844E-3	8.392534E-3	6.847330E-3	1.999633E-3	3.086017E-3	1.989662E-4
10/19/2017  17:25:21.769424	1.011188E-1	6.208586E-3	5.633118E-3	1.242308E-2	2.622655E-3	5.565077E-3	4.564690E-3	8.837391E-3
10/19/2017  17:25:21.770424	2.528479E-2	2.119200E-4	2.355148E-3	7.475657E-3	4.888070E-3	6.482914E-3	1.097560E-3	1.684844E-4
10/19/2017  17:25:21.771424	6.401697E-2	7.001160E-3	4.398452E-3	3.607887E-3	7.924846E-3	3.896426E-4	5.003268E-3	1.745258E-2
10/19/2017  17:25:21.772424	8.285721E-2	5.094708E-3	3.938097E-3	1.876998E-2	3.244622E-3	1.852042E-3	3.234081E-3	5.463543E-3
10/19/2017  17:25:21.773424	4.293994E-1	8.535881E-4	1.411969E-2	4.911996E-3	6.830954E-3	1.214749E-3	9.032910E-3	1.760136E-4
10/19/2017  17:25:21.774424	2.084540E-1	3.500630E-3	5.686786E-3	1.749594E-2	4.771635E-3	5.002611E-3	1.318095E-2	7.193140E-3
10/19/2017  17:25:21.775424	8.961417E-2	1.083686E-2	6.881066E-4	6.344031E-3	3.043332E-3	9.797313E-3	2.615482E-3	9.780281E-3
10/19/2017  17:25:21.776424	1.672124E-2	8.928865E-4	9.834510E-4	6.645094E-3	2.713427E-3	2.753270E-3	7.304881E-3	4.704712E-3
10/19/2017  17:25:21.777424	3.651010E-1	1.144556E-2	5.271740E-3	2.542131E-5	2.454581E-3	2.942513E-4	1.193109E-3	7.871038E-4
10/19/2017  17:25:21.778424	5.188524E-2	3.104346E-3	7.812069E-3	3.830112E-3	3.098085E-5	2.489532E-3	1.400838E-2	2.627602E-5
10/19/2017  17:25:21.779424	1.141153E-3	1.614158E-3	1.046007E-2	6.649142E-3	4.833826E-4	3.965200E-3	3.325082E-3	7.066014E-3
10/19/2017  17:25:21.780424	3.255973E-2	4.879512E-3	1.116311E-3	3.166793E-3	5.149240E-3	5.241641E-4	4.913580E-3	1.110631E-3
10/19/2017  17:25:21.781424	8.397296E-2	8.177121E-3	1.213734E-2	3.744627E-3	8.295587E-3	8.801004E-3	5.866092E-3	1.029535E-3
10/19/2017  17:25:21.782424	7.436609E-2	1.511324E-2	5.017288E-4	4.162582E-3	4.971133E-3	1.158257E-2	4.136768E-3	3.231702E-4
10/19/2017  17:25:21.783424	1.266133E-1	4.324489E-3	5.313750E-3	1.342061E-4	9.491395E-3	1.496357E-2	1.623462E-3	2.464295E-4
10/19/2017  17:25:21.784424	1.132337E-2	5.822420E-3	8.578287E-3	1.160401E-3	2.133292E-3	2.743973E-3	7.869655E-3	6.935483E-4
10/19/2017  17:25:21.785424	6.217063E-2	6.908070E-5	1.910984E-3	6.266624E-3	7.642267E-3	6.162081E-3	9.449709E-4	3.285099E-3
10/19/2017  17:25:21.786424	3.741793E-2	4.297437E-3	8.259818E-4	1.406292E-2	7.881783E-3	9.362318E-3	2.952476E-3	2.691229E-3
10/19/2017  17:25:21.787424	2.016982E-1	5.826789E-3	4.930204E-3	3.662920E-4	3.375866E-3	1.153858E-2	6.432230E-3	4.771050E-3
10/19/2017  17:25:21.788424	1.036169E-1	6.559180E-3	3.339624E-3	1.072196E-2	4.364335E-3	4.672838E-3	6.476258E-3	2.539791E-3
10/19/2017  17:25:21.789424	1.224231E-1	2.203056E-3	6.615061E-3	3.956523E-3	1.094504E-3	3.172937E-3	6.772714E-3	5.305514E-3
10/19/2017  17:25:21.790424	6.126987E-3	5.393412E-3	2.691238E-3	3.597550E-3	9.963225E-3	4.550937E-3	7.408291E-3	2.204852E-3
10/19/2017  17:25:21.791424	7.518943E-2	4.176889E-3	6.211741E-3	1.054449E-3	1.068089E-2	5.606076E-3	1.061444E-3	3.311771E-3
10/19/2017  17:25:21.792424	2.182362E-2	5.285450E-3	6.270675E-3	1.432703E-2	7.763884E-3	6.106668E-3	2.905955E-3	1.147603E-2
10/19/2017  17:25:21.793424	7.222460E-2	7.996422E-3	5.142284E-4	3.779448E-3	3.367702E-3	3.172952E-4	2.347619E-4	1.034620E-2
10/19/2017  17:25:21.794424	4.603738E-2	9.143936E-4	7.611584E-3	1.873202E-3	6.049844E-3	2.811967E-3	1.114247E-2	6.106974E-3
10/19/2017  17:25:21.795424	5.628191E-2	3.609419E-5	5.234652E-4	8.070224E-3	4.796284E-3	1.958559E-3	3.089798E-3	4.723410E-4
10/19/2017  17:25:21.796424	1.416934E-1	1.144909E-2	1.717963E-4	2.925460E-3	1.610736E-3	1.210663E-3	2.421275E-3	5.085644E-3
								
10/19/2017  17:25:21.797424	8.275784E-2	1.977158E-4	7.164524E-4	1.189092E-4	7.247090E-4	8.388225E-4	6.147591E-3	4.122610E-4
10/19/2017  17:25:21.798424	8.875300E-3	7.227770E-5	1.127823E-3	6.301874E-3	4.505143E-3	2.233177E-3	6.374662E-3	2.152568E-3
10/19/2017  17:25:21.799424	5.467391E-2	4.040938E-3	3.581784E-3	2.375576E-3	1.678674E-3	1.233903E-3	1.885464E-3	7.575254E-3
10/19/2017  17:25:21.800424	5.978628E-1	3.196861E-4	1.253412E-3	2.094490E-3	3.942257E-3	1.570441E-3	1.498504E-3	6.208984E-3
10/19/2017  17:25:21.801424	1.266839E-2	4.564518E-3	1.839232E-3	1.049102E-2	3.269075E-3	8.267746E-3	1.472324E-2	2.975736E-3
10/19/2017  17:25:21.802424	2.702783E-1	7.894765E-3	2.460261E-3	9.619744E-4	2.661361E-3	1.489937E-2	1.299213E-4	7.048747E-3
10/19/2017  17:25:21.803424	4.365384E-1	5.609066E-3	3.243371E-3	4.862784E-3	8.701827E-3	3.859611E-3	4.340033E-3	7.540703E-3
10/19/2017  17:25:21.804424	1.020633E-1	6.458827E-4	9.352689E-3	5.521613E-3	3.017523E-3	8.646468E-3	7.157677E-3	3.242115E-3
10/19/2017  17:25:21.805424	2.322757E-1	7.326075E-3	5.075556E-3	2.369540E-3	7.030446E-3	4.154966E-5	1.868850E-4	8.649157E-3
10/19/2017  17:25:21.806424	4.324788E-2	3.198346E-3	6.864832E-3	7.179916E-3	9.616928E-3	3.607369E-4	4.898320E-3	6.023320E-3
10/19/2017  17:25:21.807424	4.405074E-2	9.096930E-5	1.294202E-2	9.394487E-3	2.366094E-3	9.249553E-3	8.384147E-3	1.668252E-3
10/19/2017  17:25:21.808424	1.102262E-2	2.170860E-3	1.796830E-2	2.914860E-4	8.445150E-4	2.294832E-3	6.215014E-3	3.750091E-3
10/19/2017  17:25:21.809424	6.592640E-4	5.065486E-3	3.064527E-3	8.418460E-4	7.648979E-3	6.619438E-4	4.356910E-3	9.682168E-3
10/19/2017  17:25:21.810424	4.249479E-2	7.557161E-4	3.420708E-3	9.911704E-3	2.524372E-3	6.086376E-4	3.689865E-3	9.207523E-3
10/19/2017  17:25:21.811424	1.063953E-1	7.086482E-3	2.981035E-3	7.396125E-3	7.868241E-3	9.180794E-3	5.038336E-3	4.099823E-3
10/19/2017  17:25:21.812424	2.857949E-2	8.107352E-3	1.189447E-2	9.386844E-4	8.587354E-3	1.961854E-3	6.722027E-4	6.299139E-3
10/19/2017  17:25:21.813424	8.419802E-2	1.219631E-2	4.902696E-3	8.078728E-3	8.767033E-3	9.482560E-4	6.049965E-3	2.760530E-3
10/19/2017  17:25:21.814424	1.508138E-1	4.893380E-3	6.183821E-3	5.251815E-3	2.022567E-3	4.194151E-3	1.984447E-3	1.254247E-4
10/19/2017  17:25:21.815424	1.764516E-1	1.703839E-2	4.701124E-3	4.969060E-4	1.005131E-2	7.750772E-3	3.205497E-3	6.891127E-3
10/19/2017  17:25:21.816424	1.447000E-1	3.435586E-3	1.273510E-3	6.766669E-3	8.461793E-3	1.343390E-3	6.806655E-3	7.149100E-3
10/19/2017  17:25:21.817424	1.142401E-1	6.525179E-5	7.729309E-3	2.306742E-3	1.969308E-4	1.170263E-3	6.918697E-3	5.954275E-3
10/19/2017  17:25:21.818424	3.534808E-1	4.775430E-3	1.277179E-3	7.533780E-3	6.581106E-3	7.241518E-3	4.481904E-3	4.335127E-3
10/19/2017  17:25:21.819424	3.866482E-1	5.814012E-3	5.224056E-3	8.155884E-4	1.332987E-2	2.625328E-3	1.049392E-2	8.025476E-4
10/19/2017  17:25:21.820424	2.402136E-1	2.336141E-3	9.812029E-3	6.190832E-3	1.932582E-3	5.178821E-3	1.435055E-3	1.798998E-3
10/19/2017  17:25:21.821424	3.667665E-1	1.626119E-3	5.100878E-3	6.323374E-3	1.938629E-2	1.940055E-4	1.356284E-3	7.182629E-3
10/19/2017  17:25:21.822424	6.424649E-2	1.121808E-3	3.633261E-3	6.566299E-3	1.373560E-3	4.610355E-3	5.583646E-3	3.982313E-3
10/19/2017  17:25:21.823424	4.295595E-1	1.263149E-3	1.931044E-3	8.210940E-3	1.132121E-3	7.877617E-3	8.387309E-3	1.619635E-2
10/19/2017  17:25:21.824424	4.772229E-1	2.916452E-3	1.235416E-2	1.198209E-2	3.086940E-3	3.384912E-3	1.156967E-2	1.657305E-3
10/19/2017  17:25:21.825424	2.797545E-1	3.593895E-4	4.170693E-3	7.509785E-3	6.524630E-3	4.355855E-3	4.773395E-4	3.676679E-3
10/19/2017  17:25:21.826424	7.666695E-1	1.135662E-2	4.111844E-3	3.365649E-4	2.130529E-3	9.762390E-3	5.142039E-4	4.986079E-3
10/19/2017  17:25:21.827424	3.014000E-1	5.798220E-3	9.927379E-3	1.352505E-2	1.795809E-3	1.899254E-3	5.318188E-4	7.864353E-3
10/19/2017  17:25:21.828424	3.409169E-1	6.706465E-4	7.122628E-4	1.307369E-3	1.487247E-3	8.062163E-3	5.939915E-3	1.239520E-3
10/19/2017  17:25:21.829424	8.597380E-1	3.194819E-3	1.130903E-2	1.084566E-3	5.531844E-3	5.148289E-3	9.117431E-3	3.458277E-3
								
10/19/2017  17:25:21.830424	3.604874E-1	9.232296E-3	3.260453E-3	8.600512E-4	6.018124E-3	4.988111E-3	1.740019E-2	9.243391E-3
10/19/2017  17:25:21.831424	1.560260E+0	6.703973E-3	1.139832E-2	3.681545E-3	4.335002E-4	9.880922E-3	7.682545E-3	2.193664E-3
10/19/2017  17:25:21.832424	1.111522E+0	4.068398E-3	8.532927E-3	2.477315E-3	1.159804E-2	6.528584E-3	8.190909E-3	1.310887E-3
10/19/2017  17:25:21.833424	9.019328E-1	3.020763E-3	6.858631E-3	2.820617E-3	3.982366E-3	7.311407E-3	1.739905E-3	5.893216E-3
10/19/2017  17:25:21.834424	3.018145E-1	2.790244E-5	3.302848E-4	1.082084E-2	3.856319E-3	7.572679E-3	7.814850E-3	4.357941E-3
10/19/2017  17:25:21.835424	6.752798E-1	2.091583E-3	1.501644E-2	9.262939E-4	9.332788E-3	5.255807E-3	7.598939E-3	1.261918E-3
10/19/2017  17:25:21.836424	1.388457E-1	7.279007E-3	3.245524E-3	8.464562E-3	1.535586E-4	7.473844E-3	5.412026E-3	9.373212E-4
10/19/2017  17:25:21.837424	6.528910E-1	2.895745E-3	1.202535E-2	2.393138E-3	2.689319E-3	1.416061E-2	2.901542E-3	4.977180E-3
10/19/2017  17:25:21.838424	1.498348E-2	1.468949E-2	1.138616E-2	1.418896E-3	1.091815E-2	3.191213E-3	6.620192E-3	1.167882E-3
10/19/2017  17:25:21.839424	2.319750E-1	5.621248E-3	6.104961E-3	2.761434E-3	5.529880E-3	2.002565E-2	6.839760E-3	5.973296E-3
10/19/2017  17:25:21.840424	1.272396E-1	1.575970E-2	2.004365E-3	1.378035E-3	7.287532E-3	5.629673E-3	1.972861E-3	6.541859E-3
10/19/2017  17:25:21.841424	2.906008E-1	9.431822E-3	1.081741E-3	1.916526E-3	1.100492E-3	1.365493E-2	3.652281E-4	1.666683E-4
10/19/2017  17:25:21.842424	4.676646E-1	1.306911E-2	2.480037E-3	4.260582E-5	3.744449E-3	1.020667E-3	8.793025E-3	2.296551E-3
10/19/2017  17:25:21.843424	2.244171E-1	6.555590E-3	3.163891E-3	2.945593E-3	5.796966E-4	1.128406E-2	2.056173E-3	1.046061E-2
10/19/2017  17:25:21.844424	9.595748E-3	2.261802E-2	6.626515E-4	1.151485E-2	1.342038E-2	2.995629E-3	2.892625E-3	2.899988E-3
10/19/2017  17:25:21.845424	1.264971E-1	1.376413E-3	3.274141E-3	8.557628E-3	8.272663E-3	7.509739E-3	2.010268E-3	4.872137E-3
10/19/2017  17:25:21.846424	5.152992E-1	9.986032E-3	4.902078E-3	4.458686E-4	1.057252E-2	8.329604E-3	5.197846E-3	1.027849E-2
10/19/2017  17:25:21.847424	2.578283E-2	4.942116E-3	6.305479E-3	1.124783E-2	5.562323E-3	1.074051E-2	5.833998E-3	2.908469E-3
10/19/2017  17:25:21.848424	3.135708E-1	3.257736E-3	7.065002E-3	3.097735E-3	1.476680E-2	1.193419E-3	2.630547E-3	1.758315E-3
10/19/2017  17:25:21.849424	1.527720E-1	2.566138E-3	2.978247E-3	3.975900E-3	3.121765E-3	2.875088E-3	5.921229E-6	9.982446E-3
10/19/2017  17:25:21.850424	3.001001E-1	4.127013E-3	2.272868E-3	1.057991E-2	2.940792E-3	6.874353E-3	4.012942E-3	5.048763E-3
10/19/2017  17:25:21.851424	2.745322E-1	1.410119E-3	8.123716E-3	1.018373E-3	9.220962E-3	2.813589E-3	6.262566E-3	1.255311E-3
10/19/2017  17:25:21.852424	4.473865E-1	9.650617E-3	1.001553E-3	2.852880E-3	9.021085E-3	8.864404E-3	6.935289E-3	3.716312E-3
10/19/2017  17:25:21.853424	3.497100E-1	2.167024E-3	5.388569E-3	2.433369E-3	2.365684E-3	8.207331E-3	6.356772E-4	2.828092E-3
10/19/2017  17:25:21.854424	3.528060E-2	5.528608E-3	4.648386E-3	1.802614E-3	1.827076E-3	3.498259E-3	3.768544E-4	8.540475E-3
10/19/2017  17:25:21.855424	4.503838E-1	2.090590E-3	7.783118E-3	9.091675E-4	3.538057E-3	7.524613E-3	1.062733E-2	2.867592E-3
10/19/2017  17:25:21.856424	1.511365E-1	5.509476E-3	1.205700E-2	3.642642E-3	2.451960E-3	7.975041E-3	7.908285E-4	4.506300E-3
10/19/2017  17:25:21.857424	1.248475E-1	6.443718E-3	4.900142E-3	2.462396E-4	2.774338E-3	7.956464E-3	1.067803E-2	5.496949E-3
10/19/2017  17:25:21.858424	3.397205E-1	2.510345E-3	8.307630E-3	8.614297E-5	8.576875E-3	1.068045E-3	5.513848E-3	5.216179E-4
10/19/2017  17:25:21.859424	4.306097E-1	4.767062E-3	6.096532E-3	2.520140E-3	1.520637E-3	1.068405E-3	6.356785E-4	4.845992E-3
10/19/2017  17:25:21.860424	6.194977E-2	3.321773E-3	6.389936E-3	8.511670E-3	1.511469E-3	5.361384E-3	2.909272E-3	5.582333E-3
10/19/2017  17:25:21.861424	4.977058E-1	2.121021E-3	1.099096E-2	1.645136E-3	5.836849E-3	4.167866E-4	1.091223E-2	2.796911E-3
10/19/2017  17:25:21.862424	4.797365E-1	3.177624E-3	1.437381E-2	7.704685E-3	8.716829E-3	4.556510E-3	3.224145E-3	1.088562E-2
								
10/19/2017  17:25:21.863424	4.680805E-1	1.118125E-2	9.809168E-3	1.191926E-2	1.738400E-3	5.156782E-3	2.493588E-3	3.254817E-3
10/19/2017  17:25:21.864424	2.679783E-1	1.307222E-3	1.818637E-2	5.082251E-3	9.410421E-4	1.000330E-3	8.691126E-3	2.423776E-3
10/19/2017  17:25:21.865424	1.014239E-1	5.708299E-4	4.696416E-3	6.352677E-3	1.867723E-3	4.246718E-3	1.772581E-4	2.122955E-3
10/19/2017  17:25:21.866424	4.839598E-1	8.668809E-3	5.872872E-3	9.177732E-3	1.248551E-2	1.650842E-2	4.230190E-3	6.156694E-3
10/19/2017  17:25:21.867424	2.174464E-1	1.522193E-4	2.144294E-3	2.161971E-3	6.410753E-3	8.343636E-4	1.435235E-3	1.576547E-4
10/19/2017  17:25:21.868424	3.319557E-1	3.923246E-6	5.835997E-3	5.673908E-4	2.658628E-4	1.105799E-2	5.468887E-3	2.010136E-3
10/19/2017  17:25:21.869424	2.225859E-1	2.037689E-3	2.594448E-3	1.045852E-2	2.324381E-3	8.060041E-3	2.659828E-3	3.474656E-3
10/19/2017  17:25:21.870424	1.621872E-2	3.385106E-3	6.415737E-3	6.169355E-4	7.120109E-3	6.422038E-3	4.073903E-3	6.439055E-3
10/19/2017  17:25:21.871424	8.500886E-2	2.605419E-2	1.913800E-3	1.302049E-2	4.929164E-3	5.795269E-3	4.888937E-3	3.397923E-4
10/19/2017  17:25:21.872424	6.698648E-2	7.121780E-4	3.501328E-3	2.816556E-3	1.238195E-3	3.481889E-3	1.258583E-3	6.720621E-3
10/19/2017  17:25:21.873424	2.620697E-2	9.005431E-3	1.501340E-4	6.124019E-3	1.164060E-2	7.050620E-3	5.673454E-3	6.667447E-3
10/19/2017  17:25:21.874424	7.681254E-3	4.855122E-3	1.327553E-4	1.704147E-3	5.657465E-3	3.584948E-3	4.309559E-3	4.521994E-3
10/19/2017  17:25:21.875424	6.631094E-2	5.991823E-3	2.513772E-3	5.935481E-3	5.859469E-3	9.606202E-3	9.845439E-4	1.242994E-2
10/19/2017  17:25:21.876424	6.996245E-2	8.700844E-3	6.290833E-3	9.055257E-3	3.520332E-3	2.725856E-3	5.768809E-3	6.784594E-3
10/19/2017  17:25:21.877424	8.075952E-2	7.041196E-3	4.401559E-3	6.586383E-3	1.021381E-2	2.032194E-4	6.039158E-3	1.925750E-3
10/19/2017  17:25:21.878424	2.038702E-2	2.972901E-3	7.133454E-3	4.493369E-3	5.058909E-4	6.635611E-3	5.547026E-4	5.979304E-3
10/19/2017  17:25:21.879424	2.131596E-2	6.392591E-3	8.556235E-3	1.021951E-2	1.349207E-2	1.710913E-4	3.171013E-3	8.631243E-3
10/19/2017  17:25:21.880424	5.975395E-2	6.558545E-3	6.553226E-3	9.289766E-4	9.996935E-3	4.503366E-3	4.955025E-3	5.782360E-3
10/19/2017  17:25:21.881424	4.989526E-2	4.799925E-3	6.990187E-3	1.477750E-3	2.670218E-3	3.347710E-3	3.883728E-3	5.570648E-3
10/19/2017  17:25:21.882424	5.720761E-2	5.457394E-3	1.663777E-3	1.825805E-2	2.782216E-3	1.882901E-4	5.102144E-3	1.394809E-3
10/19/2017  17:25:21.883424	3.744099E-2	8.334986E-4	7.839402E-3	2.952172E-3	2.311169E-3	4.356195E-3	5.052907E-3	1.507412E-2
10/19/2017  17:25:21.884424	2.901791E-2	9.691671E-3	3.189939E-3	1.601301E-2	6.243716E-3	4.961782E-3	5.669912E-3	7.024167E-3
10/19/2017  17:25:21.885424	2.677957E-2	2.702779E-3	4.513875E-3	5.287241E-3	6.322543E-3	5.682218E-3	2.788792E-3	5.237677E-3
10/19/2017  17:25:21.886424	1.164743E-2	6.766887E-3	7.411159E-3	5.152306E-4	6.387867E-3	6.669556E-3	1.387093E-4	1.539330E-3
10/19/2017  17:25:21.887424	2.658942E-2	4.005346E-3	5.995634E-3	3.962285E-3	1.746886E-3	5.840802E-3	4.709936E-3	3.093224E-3
10/19/2017  17:25:21.888424	6.880164E-2	1.355508E-3	2.955484E-4	3.814990E-3	1.763860E-3	3.750385E-3	5.628755E-3	2.447786E-3
10/19/2017  17:25:21.889424	8.958670E-2	5.652344E-3	1.243182E-2	6.179161E-4	1.079475E-2	2.303089E-3	2.620558E-3	2.263187E-3
10/19/2017  17:25:21.890424	9.138410E-2	6.825589E-3	7.107048E-3	6.021389E-3	3.888796E-3	2.303527E-3	8.469231E-3	9.729175E-4
10/19/2017  17:25:21.891424	4.020605E-1	3.936577E-3	5.801137E-3	1.860116E-3	1.221920E-3	1.088974E-2	2.805317E-3	3.163675E-3
10/19/2017  17:25:21.892424	5.170508E-1	1.151645E-2	1.839201E-3	1.264208E-3	6.973685E-3	3.650056E-3	4.325618E-3	3.776600E-3
10/19/2017  17:25:21.893424	5.421247E-1	3.002767E-3	1.420548E-3	3.502121E-3	2.085275E-3	1.036537E-2	9.525722E-3	2.510819E-3
10/19/2017  17:25:21.894424	5.892601E-2	1.551809E-2	8.060768E-3	1.489755E-3	8.097601E-3	1.618537E-3	2.314248E-3	4.849826E-3
10/19/2017  17:25:21.895424	8.190763E-1	6.550919E-3	1.692727E-3	7.981180E-3	6.468864E-3	1.452113E-2	5.344672E-6	6.384475E-3
								
10/19/2017  17:25:21.896424	3.563364E-1	1.320288E-2	7.825928E-3	1.229511E-2	2.871745E-3	9.237527E-3	9.190216E-3	9.405593E-3
10/19/2017  17:25:21.897424	1.397931E-1	9.511277E-4	5.378614E-3	4.627650E-3	8.820282E-3	2.127574E-3	4.633889E-3	6.101889E-3
10/19/2017  17:25:21.898424	2.041839E-1	1.006750E-2	5.324733E-3	1.663931E-2	6.196090E-3	5.815892E-4	3.162348E-3	2.916189E-4
10/19/2017  17:25:21.899424	1.692552E-1	8.387128E-3	4.207184E-3	1.403698E-3	2.514573E-3	1.044103E-2	9.504855E-6	4.903567E-3
10/19/2017  17:25:21.900424	1.636978E-1	6.207784E-3	5.410331E-3	3.567272E-3	1.521830E-2	2.759555E-3	4.164079E-3	9.257822E-3
10/19/2017  17:25:21.901424	1.804037E-1	2.124501E-3	6.049827E-3	4.990908E-3	4.213802E-3	2.956477E-3	4.793810E-3	6.894613E-3
10/19/2017  17:25:21.902424	3.540269E-1	2.753624E-3	4.069894E-3	1.443889E-2	1.474133E-2	9.156282E-3	2.822161E-3	3.123629E-3
10/19/2017  17:25:21.903424	4.481532E-1	4.668146E-3	4.046891E-3	5.375826E-3	1.745882E-3	6.761347E-3	1.173878E-2	8.903545E-3
10/19/2017  17:25:21.904424	1.424395E-1	1.175124E-3	5.412401E-3	2.166829E-3	7.729419E-3	1.745238E-3	8.785724E-3	1.840041E-3
10/19/2017  17:25:21.905424	5.118468E-1	1.394059E-3	1.834622E-3	4.523419E-3	3.084324E-3	1.321214E-3	2.121344E-4	3.379096E-3
10/19/2017  17:25:21.906424	1.147974E-1	1.021136E-3	5.643841E-3	6.035738E-3	1.097653E-4	9.564189E-4	4.537985E-3	1.023732E-2
10/19/2017  17:25:21.907424	2.127946E-1	2.858406E-3	3.780841E-3	1.340586E-2	1.895488E-3	1.512564E-3	3.337998E-3	8.557377E-3
10/19/2017  17:25:21.908424	3.885056E-2	1.876458E-3	5.667321E-5	1.341426E-3	3.271665E-3	3.252130E-3	1.937463E-3	6.290240E-3
10/19/2017  17:25:21.909424	3.053414E-1	5.418325E-3	1.564520E-2	1.624055E-2	3.822137E-4	5.054357E-5	5.654461E-3	7.125879E-3
10/19/2017  17:25:21.910424	4.668723E-2	1.044100E-2	1.814772E-3	2.846174E-4	4.729720E-4	4.429776E-3	1.589732E-3	3.581215E-3
10/19/2017  17:25:21.911424	1.165900E-1	6.121315E-4	1.345324E-3	4.787431E-3	3.786428E-3	1.177418E-2	2.881115E-3	1.239503E-3
10/19/2017  17:25:21.912424	6.833195E-2	4.374187E-3	7.697938E-3	1.042374E-2	1.555552E-4	2.936861E-3	2.829670E-3	4.031696E-3
10/19/2017  17:25:21.913424	1.558604E-1	8.364583E-4	1.206866E-2	1.106212E-3	3.449478E-4	4.811242E-3	6.847700E-3	9.846449E-3
10/19/2017  17:25:21.914424	2.200866E-1	2.363328E-3	1.062752E-2	5.756008E-3	9.388139E-3	5.977311E-3	2.969146E-3	9.280459E-3
10/19/2017  17:25:21.915424	3.501946E-1	5.315397E-3	3.906763E-3	1.771061E-3	1.816965E-3	2.240160E-3	6.507373E-3	2.130452E-4
10/19/2017  17:25:21.916424	4.752195E-1	1.996400E-3	2.073837E-2	9.424064E-4	3.189124E-3	5.919215E-3	4.218061E-3	2.769240E-3
10/19/2017  17:25:21.917424	1.319906E-1	4.786205E-3	2.633106E-3	1.904473E-3	6.651414E-3	6.835562E-3	5.308290E-3	8.843648E-3
10/19/2017  17:25:21.918424	2.493683E-2	1.364516E-3	7.397493E-5	8.233938E-3	8.487642E-3	6.155635E-4	4.922637E-3	4.197413E-3
10/19/2017  17:25:21.919424	2.176994E-1	7.918477E-3	8.798389E-3	5.217441E-4	1.702789E-3	4.318960E-4	3.415444E-3	3.664742E-3
10/19/2017  17:25:21.920424	2.737967E-1	6.669090E-4	1.046426E-2	2.470495E-3	7.550593E-3	2.832265E-4	2.008356E-5	1.626742E-3
10/19/2017  17:25:21.921424	2.947268E-1	3.479368E-4	1.815761E-3	4.898063E-3	5.923134E-3	8.468850E-3	1.777058E-3	9.752331E-3
10/19/2017  17:25:21.922424	3.959270E-1	4.209888E-3	1.997518E-3	8.100325E-4	2.391413E-4	1.220152E-2	3.535504E-3	6.260295E-3
10/19/2017  17:25:21.923424	2.337422E-1	1.591741E-2	2.093414E-3	5.922491E-3	6.974419E-3	3.008072E-3	7.248215E-3	2.553994E-4
10/19/2017  17:25:21.924424	2.805756E-2	1.097982E-2	4.275584E-3	3.108237E-4	6.897559E-4	1.822893E-2	9.862523E-4	1.911846E-3
10/19/2017  17:25:21.925424	7.319797E-1	1.048862E-2	2.950865E-3	6.964826E-3	8.206335E-3	4.654504E-3	3.556138E-3	9.459289E-4
10/19/2017  17:25:21.926424	9.482347E-1	1.049858E-3	6.555868E-4	4.960262E-3	1.249380E-3	1.015815E-3	6.645906E-3	5.134491E-3
10/19/2017  17:25:21.927424	7.135582E-1	6.871051E-4	5.422665E-3	7.532550E-3	6.004222E-3	7.219768E-3	2.263546E-3	2.874871E-3
10/19/2017  17:25:21.928424	7.500515E-1	1.762339E-3	3.876692E-6	3.244389E-3	2.310504E-3	1.604293E-3	2.153085E-3	2.035193E-3
								
10/19/2017  17:25:21.929424	4.447759E-1	1.282311E-3	1.122353E-2	6.434580E-3	1.704633E-3	1.428093E-3	1.280701E-2	8.305783E-4
10/19/2017  17:25:21.930424	7.791255E-1	3.025115E-3	3.665728E-3	4.173557E-3	5.503449E-3	3.408365E-3	2.640236E-3	1.448811E-3
10/19/2017  17:25:21.931424	6.703958E-1	2.355614E-3	1.727545E-4	1.337102E-3	5.790777E-3	2.522477E-3	2.665293E-3	7.783548E-3
10/19/2017  17:25:21.932424	3.204196E-1	3.986458E-3	2.404543E-3	1.236314E-3	9.471787E-3	3.917244E-3	6.386663E-3	5.439656E-3
10/19/2017  17:25:21.933424	3.334311E-1	6.710944E-4	6.361996E-3	3.031273E-3	9.259879E-3	1.759651E-3	2.305043E-3	3.001952E-3
10/19/2017  17:25:21.934424	3.035609E-1	1.746303E-3	4.635836E-3	6.333940E-3	4.126739E-5	1.480733E-3	2.910456E-3	4.660427E-3
10/19/2017  17:25:21.935424	1.673231E-1	7.720760E-3	5.444665E-3	2.518406E-4	8.767776E-3	7.713979E-3	2.228914E-3	5.131493E-3
10/19/2017  17:25:21.936424	1.246561E-1	1.306797E-3	1.638068E-3	5.772030E-3	4.504369E-4	1.096748E-3	3.794704E-3	3.186315E-3
10/19/2017  17:25:21.937424	3.042648E-2	3.468279E-3	9.490759E-4	3.178823E-3	3.720096E-3	3.079629E-3	4.197665E-4	4.738827E-3
10/19/2017  17:25:21.938424	4.033320E-2	5.783731E-4	3.690091E-4	3.066426E-3	2.143118E-3	1.083935E-2	2.262795E-3	2.984052E-3
10/19/2017  17:25:21.939424	1.216416E-1	2.810129E-3	6.589601E-3	2.903610E-3	8.475136E-3	3.532251E-3	5.175346E-3	4.551075E-3
10/19/2017  17:25:21.940424	4.157098E-1	2.144406E-3	1.627163E-3	7.020950E-3	2.476728E-3	8.170687E-4	6.003104E-3	1.136644E-3
10/19/2017  17:25:21.941424	1.012182E+0	5.875547E-4	3.353680E-3	5.431474E-3	5.815304E-4	7.503335E-3	2.010063E-3	2.934078E-3
10/19/2017  17:25:21.942424	3.830005E-1	6.843679E-3	3.991486E-3	1.162216E-3	5.882260E-3	3.365895E-3	5.288098E-3	2.426281E-4
10/19/2017  17:25:21.943424	9.002374E-1	1.933918E-3	1.724632E-3	2.003608E-3	1.583347E-3	4.080098E-3	8.151001E-3	3.862330E-4
10/19/2017  17:25:21.944424	1.356546E+0	6.034212E-3	6.891621E-4	4.228847E-3	5.957037E-3	6.134022E-4	7.659373E-3	4.814999E-3
10/19/2017  17:25:21.945424	1.737286E-1	4.403519E-3	1.316528E-2	9.981900E-3	4.658743E-3	1.926888E-3	3.891875E-3	8.358153E-4
10/19/2017  17:25:21.946424	1.180606E+0	1.301598E-3	1.307019E-2	1.365840E-2	3.524975E-3	2.794353E-3	1.209800E-2	1.617378E-3
10/19/2017  17:25:21.947424	9.225483E-1	1.052446E-3	1.630300E-2	3.824697E-3	3.797792E-4	6.048557E-3	4.540605E-3	1.001593E-3
10/19/2017  17:25:21.948424	1.212174E-1	3.475787E-3	3.715117E-3	9.842391E-3	2.412105E-3	4.874352E-3	1.108674E-3	4.994489E-3
10/19/2017  17:25:21.949424	1.013254E+0	8.555405E-3	2.869536E-3	1.336972E-3	5.832700E-4	8.237961E-3	1.339862E-3	5.329775E-3
10/19/2017  17:25:21.950424	1.984967E-1	4.747266E-3	8.625342E-3	3.682427E-3	1.355687E-2	5.977000E-3	3.441034E-3	1.744146E-3
10/19/2017  17:25:21.951424	6.843093E-3	1.150826E-3	3.727783E-3	5.791458E-3	2.797866E-3	8.372725E-3	6.730080E-3	1.244791E-3
10/19/2017  17:25:21.952424	2.118949E-1	6.486427E-4	2.163563E-3	6.643033E-4	1.160790E-2	3.291033E-3	4.174007E-3	5.650308E-3
10/19/2017  17:25:21.953424	3.027461E-1	4.083152E-3	8.504571E-3	3.184606E-3	8.487062E-3	5.128553E-3	1.068104E-3	9.077945E-3
10/19/2017  17:25:21.954424	2.811356E-1	1.314254E-3	4.057659E-3	1.571099E-2	4.989254E-3	4.109071E-3	9.583841E-3	6.638256E-3
10/19/2017  17:25:21.955424	1.805233E-2	5.664138E-3	7.979555E-3	1.896761E-3	1.511892E-3	5.414285E-3	1.997324E-3	6.862084E-3
10/19/2017  17:25:21.956424	5.004433E-3	3.615821E-4	9.939180E-4	1.017879E-2	1.042378E-3	5.284228E-3	8.114283E-3	1.949142E-3
10/19/2017  17:25:21.957424	1.163739E-1	4.692362E-3	3.377775E-3	2.699952E-3	1.512405E-3	8.466285E-3	1.364972E-3	6.080057E-3
10/19/2017  17:25:21.958424	1.591521E-1	3.276331E-3	8.763919E-3	1.469722E-3	1.400771E-2	3.903127E-3	5.727550E-3	2.318348E-3
10/19/2017  17:25:21.959424	6.951872E-2	7.157793E-5	1.687580E-4	1.697089E-3	1.473206E-3	3.895596E-3	1.057451E-2	4.955750E-4
10/19/2017  17:25:21.960424	1.384144E-1	4.664701E-3	6.350987E-3	6.114265E-3	3.522855E-4	9.349615E-3	5.999262E-4	6.819204E-3
10/19/2017  17:25:21.961424	5.470963E-2	9.933905E-3	8.563766E-3	1.121320E-2	1.141097E-2	4.431722E-3	8.825837E-3	4.570742E-3
								
10/19/2017  17:25:21.962424	2.606835E-3	2.465291E-3	7.578043E-3	2.910279E-3	6.432516E-3	3.378788E-3	6.620006E-3	1.672244E-2
10/19/2017  17:25:21.963424	5.315962E-2	3.067362E-3	3.804794E-3	1.512207E-2	4.100227E-4	4.004949E-3	3.891164E-3	5.394973E-3
10/19/2017  17:25:21.964424	1.339648E-2	4.794605E-3	1.197224E-3	5.916350E-3	6.878915E-3	8.137779E-3	1.671326E-3	5.203065E-3
10/19/2017  17:25:21.965424	4.227608E-2	3.687246E-3	2.538668E-3	2.049351E-2	6.099645E-3	3.551833E-3	3.020813E-3	1.841123E-3
10/19/2017  17:25:21.966424	7.588997E-3	5.903052E-3	7.465415E-3	8.362851E-3	3.188966E-5	6.417952E-3	4.541768E-3	1.015428E-2
10/19/2017  17:25:21.967424	3.444631E-2	4.292553E-4	5.733280E-3	5.701593E-3	9.562321E-6	1.041818E-2	5.314679E-3	1.594917E-3
10/19/2017  17:25:21.968424	4.236796E-2	7.154632E-3	1.072050E-2	3.014839E-3	4.364616E-3	6.035483E-3	7.264816E-3	1.365590E-3
10/19/2017  17:25:21.969424	2.618022E-3	3.428955E-3	1.316101E-3	5.787794E-4	2.960514E-3	4.699256E-3	5.579701E-3	5.468184E-3
10/19/2017  17:25:21.970424	1.150211E-1	6.380231E-3	9.961340E-3	3.182129E-3	4.706206E-3	7.707909E-4	4.853149E-3	6.010711E-3
10/19/2017  17:25:21.971424	1.278015E-1	1.962585E-3	4.947157E-3	2.808274E-3	1.003641E-2	1.819073E-3	5.112844E-3	1.780790E-3
10/19/2017  17:25:21.972424	3.093990E-2	7.417468E-4	1.402208E-2	8.938146E-3	6.917188E-3	1.456654E-3	1.257221E-3	5.709666E-3
10/19/2017  17:25:21.973424	2.888591E-1	5.990332E-3	3.203718E-3	3.179503E-6	4.343627E-3	5.454137E-3	3.755825E-3	2.246111E-3
10/19/2017  17:25:21.974424	1.613380E-1	2.388354E-3	3.702288E-4	5.513536E-5	1.879272E-2	1.135225E-2	7.209447E-3	3.990227E-3
10/19/2017  17:25:21.975424	1.020627E-2	1.843195E-3	2.655341E-3	6.386350E-3	1.957224E-3	8.191268E-4	7.271844E-4	7.563827E-4
10/19/2017  17:25:21.976424	2.577208E-1	5.681271E-3	1.233483E-4	4.408939E-3	3.861499E-3	1.219250E-3	3.998612E-3	2.710731E-3
10/19/2017  17:25:21.977424	3.216454E-2	6.006228E-3	6.532483E-3	9.590216E-4	2.917901E-3	1.717877E-3	7.237008E-3	2.489914E-3
10/19/2017  17:25:21.978424	3.722794E-2	4.873884E-3	4.544017E-3	4.423952E-4	2.117116E-3	1.889469E-2	2.758875E-3	4.663843E-3
10/19/2017  17:25:21.979424	1.483471E-2	2.548426E-2	1.008000E-2	2.130508E-3	3.608836E-3	2.318443E-3	4.933891E-3	3.110065E-3
10/19/2017  17:25:21.980424	1.447903E-2	1.872773E-3	7.245603E-4	2.578003E-3	8.475265E-3	1.150165E-3	5.953484E-3	3.974395E-3
10/19/2017  17:25:21.981424	2.480617E-1	1.291717E-2	9.064538E-3	6.500763E-4	1.245870E-2	5.821625E-3	5.916967E-5	1.074541E-2
10/19/2017  17:25:21.982424	6.540106E-2	7.363906E-3	4.955564E-4	1.160865E-2	6.928551E-3	4.656622E-3	2.073607E-3	5.777240E-3
10/19/2017  17:25:21.983424	5.086725E-2	3.023016E-3	3.088140E-3	1.680798E-3	1.413880E-2	6.776591E-4	3.494191E-3	2.379814E-3
10/19/2017  17:25:21.984424	1.321547E-2	2.696220E-4	9.178197E-3	1.256783E-3	1.389062E-3	4.175092E-3	6.464840E-3	2.643373E-3
10/19/2017  17:25:21.985424	5.734236E-3	2.664141E-3	4.523540E-3	3.130155E-3	1.376517E-2	3.294613E-3	2.577964E-3	8.977956E-3
10/19/2017  17:25:21.986424	1.501859E-1	4.297293E-3	1.204214E-3	1.549923E-2	6.135977E-3	2.025555E-3	1.828247E-3	1.816040E-3
10/19/2017  17:25:21.987424	1.286856E-2	3.340476E-3	1.188476E-3	2.026075E-3	9.435603E-3	5.489039E-3	9.532739E-4	3.454717E-3
10/19/2017  17:25:21.988424	5.970089E-2	2.122290E-3	7.960063E-3	1.601807E-3	9.254546E-3	2.038616E-3	1.154456E-2	6.442716E-4
10/19/2017  17:25:21.989424	1.348179E-1	4.815049E-3	9.866096E-3	5.548361E-3	4.371911E-3	5.293375E-4	5.667791E-3	1.803845E-2
10/19/2017  17:25:21.990424	2.048031E-3	5.245236E-3	2.207508E-3	8.124070E-3	3.702306E-3	1.060361E-2	9.677194E-3	4.823375E-3
10/19/2017  17:25:21.991424	5.035618E-2	3.105686E-3	1.085242E-2	7.717894E-3	5.052363E-3	3.470267E-3	9.551886E-3	3.844428E-3
10/19/2017  17:25:21.992424	5.105048E-1	7.281764E-3	3.647604E-3	1.574870E-2	3.645180E-3	4.842739E-3	2.569409E-3	9.473223E-3
10/19/2017  17:25:21.993424	6.300229E-2	8.014839E-3	8.189932E-3	9.188377E-3	1.864746E-3	8.500385E-4	2.583062E-3	1.093834E-2
10/19/2017  17:25:21.994424	3.153175E-2	3.890321E-3	3.105191E-3	3.439862E-3	3.588665E-3	7.058708E-3	4.605762E-3	3.657854E-3
								
10/19/2017  17:25:21.995424	9.584584E-2	1.409437E-3	2.472477E-3	4.981567E-3	1.831365E-3	6.091423E-3	5.547265E-3	5.421863E-3
10/19/2017  17:25:21.996424	1.502374E-1	5.159453E-3	1.907870E-3	2.168927E-2	2.995176E-3	1.059220E-2	3.312117E-4	4.324293E-3
10/19/2017  17:25:21.997424	2.094922E-1	7.607330E-3	1.436545E-2	1.825059E-3	2.334980E-3	2.646912E-3	6.704011E-3	1.196663E-3
10/19/2017  17:25:21.998424	1.780640E-1	3.973918E-3	3.283364E-3	7.424028E-4	1.752997E-3	3.269564E-3	6.294457E-3	1.102220E-3
10/19/2017  17:25:21.999424	1.446489E-1	7.865669E-3	1.158944E-2	1.792573E-3	5.587249E-3	9.803260E-4	2.437317E-3	3.776261E-3
10/19/2017  17:25:22.000424	4.597186E-1	4.571206E-4	4.119870E-3	1.403687E-3	9.227296E-3	7.992176E-3	4.503708E-4	2.799514E-3
10/19/2017  17:25:22.001424	5.961491E-1	8.693359E-3	7.194146E-4	7.562924E-3	6.489363E-3	1.934070E-3	3.960880E-3	8.429503E-3
10/19/2017  17:25:22.002424	3.387425E-1	1.925000E-3	8.244365E-3	5.173892E-3	4.467331E-3	3.244549E-4	4.706036E-4	8.951812E-4
10/19/2017  17:25:22.003424	5.332944E-1	3.407688E-3	7.827628E-3	5.447758E-3	7.862375E-3	6.222142E-3	6.400666E-3	1.150840E-3
10/19/2017  17:25:22.004424	2.368555E-2	1.083582E-2	5.838606E-3	4.227512E-3	8.590295E-4	7.131777E-3	2.747957E-4	3.497999E-3
10/19/2017  17:25:22.005424	1.268849E-1	7.435035E-3	3.484344E-4	7.477812E-3	1.554004E-3	1.862176E-2	2.319347E-3	3.556966E-3
10/19/2017  17:25:22.006424	1.966318E-1	9.429086E-3	7.222431E-3	3.510562E-3	7.601957E-3	2.033729E-3	4.957438E-3	4.530219E-3
10/19/2017  17:25:22.007424	5.535873E-2	4.742795E-3	5.390201E-3	2.654156E-3	3.017140E-3	1.470237E-2	1.344624E-3	1.562574E-3
10/19/2017  17:25:22.008424	3.209359E-1	1.264886E-2	6.972222E-3	2.381817E-3	1.127355E-2	5.895182E-3	7.798067E-3	7.080476E-3
10/19/2017  17:25:22.009424	5.024998E-2	5.938236E-3	2.589582E-3	6.058947E-4	5.915297E-3	5.062433E-3	5.384469E-3	4.344504E-3
10/19/2017  17:25:22.010424	1.128449E-1	1.748304E-3	7.109406E-4	1.236324E-2	2.562919E-3	8.433675E-3	9.528644E-4	3.798900E-3
10/19/2017  17:25:22.011424	2.584963E-1	5.076869E-3	9.564581E-3	4.846180E-3	6.416099E-3	8.317508E-3	5.520615E-3	7.595255E-3
10/19/2017  17:25:22.012424	3.593704E-1	1.461068E-3	9.029949E-3	4.128615E-3	1.056445E-2	8.178735E-4	1.290753E-2	2.948764E-3
10/19/2017  17:25:22.013424	1.431504E-2	8.337695E-3	4.759594E-3	3.482181E-3	5.844907E-3	9.570523E-3	3.946353E-3	4.717248E-3
10/19/2017  17:25:22.014424	3.651009E-1	8.648329E-3	8.034099E-3	5.062125E-3	8.538871E-3	2.515761E-3	2.976677E-3	3.552124E-3
10/19/2017  17:25:22.015424	5.311719E-1	2.023201E-3	5.076253E-3	1.031488E-2	1.151343E-3	2.669265E-3	2.151334E-3	3.806830E-4
10/19/2017  17:25:22.016424	5.448777E-1	4.997772E-3	3.007364E-3	1.504565E-3	6.449226E-3	6.269104E-3	5.771930E-3	1.100949E-2
10/19/2017  17:25:22.017424	3.802341E-1	5.500143E-3	6.547164E-3	1.429178E-2	3.027302E-3	2.065987E-3	2.694092E-3	8.394232E-4
10/19/2017  17:25:22.018424	2.310157E-1	1.263286E-3	4.165000E-3	3.087297E-3	9.116825E-3	1.106552E-3	4.377312E-3	1.091597E-2
10/19/2017  17:25:22.019424	8.612207E-2	6.206856E-3	1.169352E-2	1.116886E-2	6.603067E-3	5.237821E-3	5.400577E-3	5.986612E-3
10/19/2017  17:25:22.020424	9.925971E-2	1.133514E-2	2.887134E-3	5.674458E-3	1.392736E-4	9.930427E-3	5.927266E-4	4.287704E-3
10/19/2017  17:25:22.021424	2.383499E-1	3.711313E-3	6.821736E-3	1.585996E-2	6.724620E-3	1.028646E-3	1.571913E-3	1.485380E-3
10/19/2017  17:25:22.022424	2.614381E-1	8.461012E-3	1.427184E-3	3.911080E-3	1.596227E-3	3.229734E-3	8.764290E-4	3.444352E-3
10/19/2017  17:25:22.023424	3.418497E-2	1.756851E-3	3.516219E-3	1.010732E-2	3.168116E-3	1.116623E-2	4.010524E-3	3.993553E-4
10/19/2017  17:25:22.024424	3.336668E-1	7.457973E-3	2.609182E-3	1.889812E-3	6.288075E-3	5.388351E-4	3.418160E-3	3.593161E-4
10/19/2017  17:25:22.025424	2.696724E-2	5.092943E-3	4.640825E-3	8.322921E-3	1.702040E-3	4.617927E-3	1.074169E-2	4.641624E-3
10/19/2017  17:25:22.026424	8.661657E-1	3.371509E-3	7.635185E-3	3.953270E-3	3.914513E-3	9.942718E-3	8.270994E-3	3.194273E-3
10/19/2017  17:25:22.027424	2.366388E-1	5.053178E-3	1.154843E-3	6.206528E-4	3.522722E-3	3.769777E-3	8.699508E-3	2.329318E-3
								
10/19/2017  17:25:22.028424	4.592000E-1	1.758657E-3	7.445406E-3	2.496892E-3	7.464065E-3	9.160404E-3	4.324264E-3	4.061372E-3
10/19/2017  17:25:22.029424	7.341957E-2	7.970101E-3	3.487649E-3	6.118274E-4	2.987134E-3	6.125724E-3	3.136038E-3	9.446287E-3
10/19/2017  17:25:22.030424	4.867796E-3	8.646389E-4	2.572154E-3	3.628386E-3	1.251085E-2	1.366258E-2	6.508393E-3	2.074340E-3
10/19/2017  17:25:22.031424	6.768795E-2	1.442618E-3	4.684901E-3	2.155317E-3	1.421636E-3	5.735148E-3	2.372838E-3	9.853095E-3
10/19/2017  17:25:22.032424	2.329453E-1	5.603556E-3	1.052685E-3	5.538369E-3	8.886724E-3	4.555696E-3	2.882149E-3	7.541013E-4
10/19/2017  17:25:22.033424	7.533261E-2	3.942085E-3	5.945974E-3	2.089151E-3	9.492287E-3	1.189122E-3	6.543177E-3	3.660702E-3
10/19/2017  17:25:22.034424	1.806826E-1	6.091844E-3	6.398208E-3	3.359561E-3	1.170066E-2	3.111466E-3	1.920539E-3	4.493686E-3
10/19/2017  17:25:22.035424	2.058635E-1	1.521349E-2	6.549121E-3	5.010023E-3	4.096842E-3	6.450675E-3	5.790111E-3	5.323059E-4
10/19/2017  17:25:22.036424	6.790663E-2	2.688473E-3	2.634740E-3	3.833118E-3	3.767890E-3	1.285960E-2	1.843355E-3	6.711548E-3
10/19/2017  17:25:22.037424	2.000724E-1	1.766885E-2	1.858374E-3	4.975925E-3	8.009227E-3	4.067719E-3	3.250777E-3	8.647584E-4
10/19/2017  17:25:22.038424	5.049941E-1	3.914155E-3	9.523062E-4	7.404669E-3	1.243627E-3	1.160341E-3	1.853852E-3	9.589556E-3
10/19/2017  17:25:22.039424	2.522663E-1	2.431950E-3	7.260323E-3	3.026360E-3	1.430659E-3	2.675886E-3	7.506593E-3	3.995879E-3
10/19/2017  17:25:22.040424	1.548150E-1	9.550832E-4	7.140089E-3	1.107851E-2	1.571213E-3	1.438463E-3	5.262069E-3	1.503167E-3
10/19/2017  17:25:22.041424	1.133014E-1	5.563606E-3	4.114076E-3	7.758667E-3	1.668813E-3	1.252831E-2	5.263422E-3	1.067264E-3
10/19/2017  17:25:22.042424	2.326450E-2	6.510890E-3	9.918502E-3	3.675818E-3	8.217814E-3	6.934889E-3	4.008400E-3	6.889618E-4
10/19/2017  17:25:22.043424	9.483855E-2	6.038489E-3	2.865505E-3	9.976291E-4	1.692768E-2	1.733051E-3	2.941459E-3	6.110970E-3
10/19/2017  17:25:22.044424	1.406829E-1	3.305097E-4	1.968917E-3	1.635661E-2	1.388011E-3	3.594459E-3	4.201774E-3	6.532236E-3
10/19/2017  17:25:22.045424	4.096114E-1	1.543860E-3	9.445051E-4	3.564179E-3	5.900889E-3	4.591860E-4	5.909578E-4	8.420077E-3
10/19/2017  17:25:22.046424	2.404767E-1	6.292454E-4	7.338966E-3	1.127463E-2	6.746266E-3	3.374465E-4	1.284495E-2	6.203921E-4
10/19/2017  17:25:22.047424	4.425856E-1	8.732503E-3	7.290061E-3	3.327490E-3	4.885462E-3	8.403635E-3	4.661700E-3	2.792466E-3
10/19/2017  17:25:22.048424	3.487580E-1	1.077837E-2	4.123766E-4	1.124038E-2	3.299330E-3	1.213784E-2	3.646380E-3	2.245767E-3
10/19/2017  17:25:22.049424	3.603094E-1	3.371923E-3	1.108432E-2	6.832104E-3	6.690078E-3	1.256369E-3	1.278269E-3	1.452539E-3
10/19/2017  17:25:22.050424	3.462990E-1	2.649821E-3	8.080030E-3	1.301920E-2	4.956104E-3	8.888066E-3	6.069637E-3	1.352117E-3
10/19/2017  17:25:22.051424	1.831102E+0	1.237416E-4	3.108537E-3	6.961212E-3	5.162796E-3	7.230587E-3	2.488130E-3	5.476463E-3
10/19/2017  17:25:22.052424	5.301831E-1	4.382630E-3	2.516889E-4	8.157072E-3	1.380521E-3	5.753984E-3	6.657385E-3	6.029347E-3
10/19/2017  17:25:22.053424	3.664471E-1	5.281139E-3	6.844441E-3	1.086535E-2	7.221280E-3	8.764845E-3	2.117801E-3	6.117626E-3
10/19/2017  17:25:22.054424	2.523052E-1	1.361697E-3	2.646157E-3	1.017700E-2	2.289364E-4	4.043052E-3	7.771068E-3	2.795636E-3
10/19/2017  17:25:22.055424	3.144920E-1	1.544650E-3	9.148923E-3	5.471844E-4	8.099421E-3	8.217343E-3	2.687461E-3	9.156647E-3
10/19/2017  17:25:22.056424	4.293990E-1	5.747017E-3	5.727630E-5	1.711600E-5	6.166716E-3	2.725694E-3	3.590695E-3	4.730719E-3
10/19/2017  17:25:22.057424	1.678900E-1	8.515379E-3	6.704144E-3	4.224707E-4	1.192291E-2	4.655142E-3	6.756700E-3	7.822252E-3
10/19/2017  17:25:22.058424	2.761524E-1	3.616899E-3	8.246753E-3	1.381059E-3	2.597060E-3	1.142105E-3	7.462000E-3	3.270091E-3
10/19/2017  17:25:22.059424	4.047458E-2	8.763378E-3	5.662555E-3	1.769153E-3	4.446490E-3	1.006408E-2	5.477639E-3	2.490693E-3
10/19/2017  17:25:22.060424	3.063076E-1	4.368642E-3	2.980069E-3	2.457253E-3	9.043250E-4	3.711302E-4	3.776045E-3	8.297802E-3
								
10/19/2017  17:25:22.061424	2.185927E-1	1.022028E-3	2.638204E-3	3.325645E-3	1.780067E-3	6.679349E-3	1.981695E-3	3.446967E-3
10/19/2017  17:25:22.062424	6.679829E-2	1.427737E-3	8.790881E-3	3.390987E-3	1.468827E-3	3.617393E-3	6.086706E-3	6.722572E-3
10/19/2017  17:25:22.063424	2.192603E-1	9.593357E-3	6.355141E-3	1.360761E-2	5.320025E-3	6.508074E-3	6.640475E-3	1.161474E-2
10/19/2017  17:25:22.064424	2.260024E-1	4.426920E-3	4.344928E-3	1.231655E-2	8.556380E-4	9.041339E-3	4.044849E-3	5.076873E-4
10/19/2017  17:25:22.065424	1.770060E-1	1.412603E-3	1.073000E-3	2.153709E-5	3.108924E-3	2.612863E-3	7.599193E-4	1.139732E-2
10/19/2017  17:25:22.066424	1.625035E-1	1.370821E-3	2.998587E-3	8.858598E-3	8.916423E-3	2.218708E-3	2.660336E-3	2.868804E-3
10/19/2017  17:25:22.067424	6.563189E-3	5.624390E-3	2.090398E-3	8.374079E-3	6.170204E-3	2.456867E-3	6.040209E-3	4.243473E-3
10/19/2017  17:25:22.068424	3.092549E-1	4.126627E-3	2.986899E-3	3.292206E-3	1.346178E-2	3.523155E-3	2.636562E-3	3.802238E-3
10/19/2017  17:25:22.069424	8.671131E-2	6.938748E-4	6.511558E-3	9.213513E-3	5.391394E-3	2.389209E-3	6.658990E-3	8.080446E-4
10/19/2017  17:25:22.070424	5.112136E-2	8.302635E-3	6.575723E-3	5.566519E-4	1.507805E-3	6.582544E-3	4.969974E-3	7.861350E-4
10/19/2017  17:25:22.071424	1.083799E-1	5.766732E-3	2.363399E-3	2.963091E-3	3.525252E-3	9.327026E-3	7.250681E-3	5.060074E-3
10/19/2017  17:25:22.072424	6.162190E-2	6.696810E-4	6.587679E-3	2.553226E-4	9.150059E-3	2.084009E-3	9.225768E-3	7.334932E-4
10/19/2017  17:25:22.073424	9.631824E-2	5.314411E-3	3.591528E-3	4.783564E-3	2.313601E-4	3.752668E-3	4.933959E-3	7.043731E-3
10/19/2017  17:25:22.074424	2.230032E-2	8.444113E-3	4.396496E-3	2.979551E-3	5.348365E-4	1.680259E-3	4.180089E-3	1.126115E-2
10/19/2017  17:25:22.075424	1.205946E-1	1.675761E-3	2.977938E-3	1.958712E-3	5.107777E-3	1.187105E-3	5.652122E-3	3.530525E-3
10/19/2017  17:25:22.076424	2.648750E-2	3.297307E-3	4.839315E-3	7.509212E-3	4.472927E-4	7.235373E-3	4.323437E-3	1.407945E-2
10/19/2017  17:25:22.077424	1.480493E-1	2.430666E-3	5.954911E-3	9.791447E-3	4.392888E-3	3.890329E-3	7.612623E-3	1.626250E-3
10/19/2017  17:25:22.078424	1.129994E-1	4.534551E-4	2.147806E-3	2.361961E-3	1.668012E-3	7.452087E-3	3.576489E-3	3.106448E-3
10/19/2017  17:25:22.079424	7.176582E-1	3.444911E-4	2.912312E-3	2.255652E-2	4.824993E-4	5.381866E-3	5.017994E-3	2.255517E-3
10/19/2017  17:25:22.080424	1.315132E-1	6.716974E-3	4.381565E-3	2.712708E-3	2.371643E-3	6.754546E-4	3.672161E-3	4.695363E-4
10/19/2017  17:25:22.081424	1.425679E-1	1.061272E-2	1.363834E-3	1.179419E-3	4.368318E-3	7.177097E-3	1.042650E-2	6.212999E-3
10/19/2017  17:25:22.082424	3.927125E-2	9.668471E-3	1.407932E-2	4.244792E-3	7.338749E-3	7.207256E-3	1.476726E-3	6.396681E-3
10/19/2017  17:25:22.083424	1.475263E-1	6.591304E-3	3.119641E-3	4.657919E-3	8.414856E-3	1.772764E-3	3.523375E-3	2.453615E-3
10/19/2017  17:25:22.084424	2.798112E-1	5.079385E-3	7.971650E-3	1.097154E-2	4.269126E-3	3.890072E-3	2.684408E-3	1.093760E-2
10/19/2017  17:25:22.085424	2.671074E-1	5.926691E-3	1.275706E-2	6.460774E-3	3.269266E-3	5.276286E-3	1.489548E-2	6.847443E-4
10/19/2017  17:25:22.086424	3.370132E-1	6.699795E-3	1.855061E-2	1.350975E-3	4.563047E-3	6.897400E-3	1.378659E-3	6.843428E-3
10/19/2017  17:25:22.087424	1.313716E-1	6.861686E-3	1.857180E-3	3.930717E-3	3.103015E-3	2.367335E-3	6.345298E-3	4.451255E-3
10/19/2017  17:25:22.088424	1.005181E+0	4.145497E-3	1.355497E-3	1.110360E-3	2.914105E-4	1.107633E-3	3.064671E-3	6.172496E-3
10/19/2017  17:25:22.089424	1.989013E-1	3.269273E-3	5.253327E-3	7.697240E-3	7.094900E-3	4.225283E-3	4.940544E-3	6.487904E-4
10/19/2017  17:25:22.090424	2.426371E-2	4.654378E-3	8.323051E-4	5.613633E-3	8.812311E-4	2.087506E-2	3.606443E-4	3.167231E-3
10/19/2017  17:25:22.091424	2.601110E-1	1.190282E-2	7.357295E-3	2.646873E-3	7.943703E-3	3.841053E-3	1.963183E-3	4.877540E-3
10/19/2017  17:25:22.092424	3.227884E-1	2.899301E-3	5.242973E-3	1.374067E-4	9.176785E-4	2.180413E-3	8.226068E-4	7.039903E-3
10/19/2017  17:25:22.093424	2.071074E-1	9.176726E-3	8.629126E-4	1.085276E-2	2.073883E-3	8.638345E-3	4.406105E-3	2.313958E-3
								
10/19/2017  17:25:22.094424	4.666582E-1	9.004996E-3	7.413858E-3	1.169586E-3	8.514485E-3	8.617347E-3	8.016643E-3	5.564916E-3
10/19/2017  17:25:22.095424	7.231081E-1	2.315800E-3	5.329473E-3	5.466470E-3	6.303203E-3	4.207360E-4	1.242768E-2	2.371504E-4
10/19/2017  17:25:22.096424	2.920823E-1	3.890911E-3	5.063133E-3	6.149730E-3	9.646120E-5	4.760876E-3	2.251685E-3	1.369466E-2
10/19/2017  17:25:22.097424	1.976382E-2	5.225242E-4	1.524680E-3	1.468994E-4	1.075594E-2	1.191347E-3	6.291640E-3	7.650521E-3
10/19/2017  17:25:22.098424	1.785029E-1	1.943431E-3	1.062242E-3	8.246566E-3	1.022852E-2	5.763564E-3	3.125904E-4	7.463071E-4
10/19/2017  17:25:22.099424	4.695588E-1	3.643896E-3	2.829233E-3	7.752603E-3	1.055936E-3	4.034120E-3	1.829747E-3	8.640370E-3
10/19/2017  17:25:22.100424	3.555925E-1	3.862592E-4	2.527578E-3	3.859762E-3	4.781792E-3	1.731284E-3	7.579730E-3	8.690771E-3
10/19/2017  17:25:22.101424	1.110478E-1	4.142024E-3	1.060914E-2	9.231408E-4	5.773392E-3	5.826471E-3	2.694648E-3	3.446901E-3
10/19/2017  17:25:22.102424	7.080314E-3	5.052404E-3	2.976270E-3	5.281383E-3	4.488622E-3	1.188720E-4	7.490446E-3	9.204745E-3
10/19/2017  17:25:22.103424	8.220350E-2	1.137378E-3	9.171464E-3	1.717880E-3	3.371683E-3	2.077408E-3	8.070478E-3	1.364887E-2
10/19/2017  17:25:22.104424	1.122517E-1	8.244948E-3	1.915129E-3	7.399884E-3	6.244803E-3	2.921764E-3	2.638309E-3	7.615280E-3
10/19/2017  17:25:22.105424	1.209980E-1	1.032589E-2	5.479660E-3	3.676879E-3	4.224023E-3	4.236080E-3	4.897816E-3	7.441706E-4
10/19/2017  17:25:22.106424	8.544713E-2	3.778257E-3	8.707914E-4	9.351251E-3	2.548982E-3	1.660501E-2	2.830448E-3	8.592790E-3
10/19/2017  17:25:22.107424	5.581906E-2	9.477147E-3	7.600398E-3	1.075380E-2	9.634371E-3	2.765608E-3	6.851665E-3	8.468154E-3
10/19/2017  17:25:22.108424	1.635746E-2	4.115044E-3	7.797716E-3	9.687348E-4	9.336869E-3	1.170639E-2	5.907159E-3	2.816620E-3
10/19/2017  17:25:22.109424	1.133572E-2	1.393251E-3	5.408682E-3	1.047046E-2	4.301174E-3	6.525547E-3	4.598764E-3	8.680267E-3
10/19/2017  17:25:22.110424	4.661431E-2	5.495271E-3	9.561148E-3	7.433945E-3	1.196956E-3	1.812230E-3	5.482428E-3	2.603485E-3
10/19/2017  17:25:22.111424	9.233586E-3	6.013121E-4	1.659062E-3	3.764567E-3	7.902032E-3	9.891802E-3	2.782148E-3	8.459761E-3
10/19/2017  17:25:22.112424	2.381446E-1	4.985877E-3	1.158674E-3	1.169431E-2	1.115119E-3	2.038270E-3	2.982006E-7	6.768699E-4
10/19/2017  17:25:22.113424	3.669955E-1	7.083689E-4	9.799645E-3	2.567282E-3	1.671414E-3	1.942274E-3	4.139896E-3	2.938093E-3
10/19/2017  17:25:22.114424	3.862509E-1	1.340604E-2	2.077541E-3	1.928073E-3	1.010348E-2	8.295332E-3	4.255388E-4	8.772853E-3
10/19/2017  17:25:22.115424	1.635666E-1	3.130086E-4	1.490798E-3	1.381916E-3	1.136848E-2	1.250208E-2	4.469159E-3	1.777707E-3
10/19/2017  17:25:22.116424	3.378971E-1	1.351140E-2	6.228692E-3	1.239807E-3	3.451579E-3	2.344337E-3	8.061618E-4	3.364426E-3
10/19/2017  17:25:22.117424	7.892008E-1	3.016618E-3	1.373648E-2	1.244334E-3	7.556341E-3	3.138088E-5	1.935766E-3	4.775722E-3
10/19/2017  17:25:22.118424	1.013108E+0	3.966168E-3	1.255597E-3	7.831134E-3	8.064849E-3	5.786351E-4	8.164619E-3	5.577546E-3
10/19/2017  17:25:22.119424	2.469794E-1	1.067614E-2	1.320716E-3	1.035808E-3	1.601439E-3	2.042931E-2	1.492906E-3	8.039113E-3
10/19/2017  17:25:22.120424	6.134704E-3	9.469106E-3	1.191144E-3	6.092750E-3	1.212862E-3	1.416183E-3	1.235917E-3	7.586577E-4
10/19/2017  17:25:22.121424	2.300870E-1	8.857858E-3	1.388317E-3	1.629108E-4	3.444984E-3	1.581101E-3	5.317612E-3	4.589216E-3
10/19/2017  17:25:22.122424	4.778298E-1	8.203612E-5	7.515297E-3	2.372096E-3	1.744820E-2	5.863306E-3	6.159766E-4	1.477011E-2
10/19/2017  17:25:22.123424	1.219039E-1	1.921409E-3	1.380552E-3	2.627251E-3	7.946083E-3	4.383373E-3	1.605563E-3	2.020434E-3
10/19/2017  17:25:22.124424	2.236839E-1	5.363189E-3	9.899014E-3	3.746111E-4	2.144448E-3	1.198958E-3	9.824719E-3	5.104487E-3
10/19/2017  17:25:22.125424	9.248946E-2	8.199933E-3	1.125099E-2	3.957088E-3	1.091215E-2	7.327052E-3	2.491293E-3	3.530102E-3
10/19/2017  17:25:22.126424	1.516734E-1	7.673122E-3	3.464580E-3	4.720712E-3	8.102935E-3	2.755208E-3	5.096435E-3	6.339710E-5
								
10/19/2017  17:25:22.127424	5.788459E-1	1.764017E-3	9.656296E-3	5.020648E-3	1.373402E-3	7.174511E-3	2.588355E-3	4.019072E-3
10/19/2017  17:25:22.128424	5.709944E-1	2.090799E-3	9.401379E-3	5.851039E-3	5.728381E-3	1.070471E-3	7.129460E-3	4.140851E-3
10/19/2017  17:25:22.129424	1.747343E-2	2.314693E-3	2.316901E-3	6.985548E-3	4.110051E-3	3.112910E-3	9.502086E-3	1.222889E-3
