Parameters: 	Upper Cutoff: : 500	Lower Cutoff: : 20	Sample Rate (HZ)1000	Frames Per Second: 30	Display Window Size (S)100	MVC Window Size (s): 100	Seconds To Acquire MVC: 3	Display Channel: 0
waveform	[0]	[1]	[2]	[3]	[4]	[5]	[6]	[7]
t0	10/19/2017  17:26:12.615341	10/19/2017  17:26:12.615341	10/19/2017  17:26:12.615341	10/19/2017  17:26:12.615341	10/19/2017  17:26:12.615341	10/19/2017  17:26:12.615341	10/19/2017  17:26:12.615341	10/19/2017  17:26:12.615341
delta t	0.001000	0.001000	0.001000	0.001000	0.001000	0.001000	0.001000	0.001000

time	Y[0]	Y[1]	Y[2]	Y[3]	Y[4]	Y[5]	Y[6]	Y[7]
10/19/2017  17:26:12.699977	3.107205E-1	1.319332E-2	8.827299E-3	-1.013887E+1	3.242842E-2	1.946206E-2	7.205661E-2	3.164702E-2
10/19/2017  17:26:12.700977	5.191643E-1	1.573716E-2	1.900811E-2	-1.013887E+1	1.967868E-2	2.200605E-2	6.697081E-2	3.164702E-2
10/19/2017  17:26:12.701977	5.967806E-4	2.082484E-2	2.155331E-2	-1.012105E+1	1.967868E-2	2.709402E-2	7.205661E-2	2.401527E-2
10/19/2017  17:26:12.702977	6.160473E-2	1.064948E-2	2.664372E-2	-1.013123E+1	1.712873E-2	2.200605E-2	8.222822E-2	2.910311E-2
10/19/2017  17:26:12.703977	4.530724E-1	1.828100E-2	2.155331E-2	-1.012105E+1	2.222863E-2	2.200605E-2	6.951371E-2	3.164702E-2
10/19/2017  17:26:12.704977	2.446286E-1	1.064948E-2	1.137250E-2	-1.012869E+1	2.477858E-2	9.286120E-3	7.459952E-2	3.673486E-2
10/19/2017  17:26:12.705977	-5.510167E-1	1.064948E-2	1.137250E-2	-1.013123E+1	2.987847E-2	1.437409E-2	6.951371E-2	3.164702E-2
10/19/2017  17:26:12.706977	-5.916887E-1	2.591253E-2	1.137250E-2	-1.014396E+1	2.477858E-2	2.963800E-2	6.697081E-2	2.401527E-2
10/19/2017  17:26:12.707977	-1.900530E-1	2.591253E-2	2.664372E-2	-1.013632E+1	2.477858E-2	2.963800E-2	8.731403E-2	2.910311E-2
10/19/2017  17:26:12.708977	5.928822E-1	1.319332E-2	1.391770E-2	-1.013632E+1	1.202884E-2	1.946206E-2	8.222822E-2	2.655919E-2
10/19/2017  17:26:12.709977	3.742704E-1	3.017961E-3	1.900811E-2	-1.012359E+1	1.967868E-2	1.437409E-2	6.951371E-2	3.673486E-2
10/19/2017  17:26:12.710977	5.143673E-2	8.105642E-3	2.409852E-2	-1.012869E+1	3.497837E-2	1.691808E-2	6.697081E-2	3.927877E-2
10/19/2017  17:26:12.711977	9.182580E-1	1.319332E-2	1.391770E-2	-1.013378E+1	2.732853E-2	2.455003E-2	6.951371E-2	2.147136E-2
10/19/2017  17:26:12.712977	1.256344E+0	1.319332E-2	2.155331E-2	-1.012869E+1	2.987847E-2	2.963800E-2	7.205661E-2	2.147136E-2
10/19/2017  17:26:12.713977	1.556586E-1	2.591253E-2	1.900811E-2	-1.013632E+1	2.477858E-2	2.963800E-2	7.714242E-2	2.910311E-2
10/19/2017  17:26:12.714977	-7.289566E-1	1.573716E-2	2.918892E-2	-1.013632E+1	1.967868E-2	1.946206E-2	8.222822E-2	3.673486E-2
10/19/2017  17:26:12.715977	-1.925950E-1	-2.069720E-3	2.664372E-2	-1.013887E+1	1.202884E-2	1.437409E-2	7.714242E-2	3.673486E-2
10/19/2017  17:26:12.716977	-1.976790E-1	1.064948E-2	1.391770E-2	-1.012869E+1	2.222863E-2	9.286120E-3	6.951371E-2	3.164702E-2
10/19/2017  17:26:12.717977	-2.078470E-1	2.591253E-2	1.900811E-2	-1.013123E+1	2.987847E-2	1.946206E-2	7.968532E-2	3.164702E-2
10/19/2017  17:26:12.718977	5.967806E-4	1.319332E-2	1.391770E-2	-1.013632E+1	2.987847E-2	1.946206E-2	6.951371E-2	3.164702E-2
10/19/2017  17:26:12.719977	2.344606E-1	4.741205E-4	1.137250E-2	-1.014142E+1	2.987847E-2	1.946206E-2	6.697081E-2	3.164702E-2
10/19/2017  17:26:12.720977	1.136870E+0	1.573716E-2	1.900811E-2	-1.013378E+1	2.222863E-2	1.946206E-2	7.459952E-2	2.401527E-2
10/19/2017  17:26:12.721977	2.344606E-1	1.828100E-2	1.900811E-2	-1.013378E+1	1.457878E-2	2.963800E-2	7.459952E-2	2.147136E-2
10/19/2017  17:26:12.722977	-1.951370E-1	1.573716E-2	1.900811E-2	-1.013632E+1	2.222863E-2	2.709402E-2	7.459952E-2	3.419094E-2
10/19/2017  17:26:12.723977	-8.103005E-1	1.573716E-2	2.664372E-2	-1.013632E+1	2.732853E-2	2.200605E-2	7.968532E-2	3.927877E-2
10/19/2017  17:26:12.724977	-4.315428E-1	8.105642E-3	2.409852E-2	-1.012614E+1	1.457878E-2	2.200605E-2	8.222822E-2	3.164702E-2
10/19/2017  17:26:12.725977	-1.087091E-1	5.561801E-3	2.409852E-2	-1.012869E+1	1.457878E-2	1.437409E-2	8.731403E-2	2.655919E-2
10/19/2017  17:26:12.726977	-9.091514E-2	1.064948E-2	1.391770E-2	-1.014142E+1	1.967868E-2	1.437409E-2	7.205661E-2	3.673486E-2
10/19/2017  17:26:12.727977	-2.358090E-1	1.573716E-2	1.646291E-2	-1.014396E+1	2.987847E-2	2.200605E-2	6.951371E-2	4.182269E-2
10/19/2017  17:26:12.728977	2.675065E-1	2.082484E-2	1.900811E-2	-1.015415E+1	2.987847E-2	2.963800E-2	6.697081E-2	2.401527E-2
10/19/2017  17:26:12.729977	-1.211321E-2	1.828100E-2	2.918892E-2	-1.014142E+1	1.712873E-2	2.963800E-2	7.968532E-2	8.751773E-3
10/19/2017  17:26:12.730977	2.675065E-1	1.319332E-2	2.918892E-2	-1.011850E+1	1.457878E-2	1.946206E-2	8.731403E-2	2.910311E-2
10/19/2017  17:26:12.731977	3.742704E-1	2.082484E-2	1.137250E-2	-1.013887E+1	1.967868E-2	2.200605E-2	7.459952E-2	3.673486E-2
								
10/19/2017  17:26:12.732977	3.361405E-1	3.017961E-3	2.155331E-2	-1.013378E+1	2.222863E-2	1.183011E-2	6.697081E-2	3.419094E-2
10/19/2017  17:26:12.733977	-1.849691E-1	8.105642E-3	1.137250E-2	-1.013632E+1	2.477858E-2	2.455003E-2	7.205661E-2	3.419094E-2
10/19/2017  17:26:12.734977	-1.010831E-1	1.573716E-2	1.900811E-2	-1.012869E+1	2.222863E-2	2.455003E-2	7.968532E-2	3.164702E-2
10/19/2017  17:26:12.735977	1.327807E-1	3.100021E-2	2.664372E-2	-1.014396E+1	2.732853E-2	2.963800E-2	8.222822E-2	2.401527E-2
10/19/2017  17:26:12.736977	3.183465E-1	1.319332E-2	2.664372E-2	-1.013378E+1	1.967868E-2	1.437409E-2	7.459952E-2	3.927877E-2
10/19/2017  17:26:12.737977	5.143673E-2	1.064948E-2	3.173413E-2	-1.013123E+1	2.477858E-2	1.946206E-2	7.459952E-2	3.673486E-2
10/19/2017  17:26:12.738977	-7.057916E-2	1.064948E-2	1.900811E-2	-1.013632E+1	1.712873E-2	1.946206E-2	7.459952E-2	3.419094E-2
10/19/2017  17:26:12.739977	3.618475E-2	1.064948E-2	1.191689E-3	-1.013378E+1	2.732853E-2	9.286120E-3	6.951371E-2	2.147136E-2
10/19/2017  17:26:12.740977	4.886603E-1	-2.069720E-3	1.900811E-2	-1.014651E+1	2.732853E-2	2.455003E-2	7.714242E-2	2.401527E-2
10/19/2017  17:26:12.741977	3.946064E-1	8.105642E-3	1.900811E-2	-1.013887E+1	2.477858E-2	3.726996E-2	7.459952E-2	3.673486E-2
10/19/2017  17:26:12.742977	1.353227E-1	1.064948E-2	2.664372E-2	-1.013378E+1	1.457878E-2	1.946206E-2	7.968532E-2	2.910311E-2
10/19/2017  17:26:12.743977	-1.646331E-1	8.105642E-3	2.155331E-2	-1.013123E+1	1.457878E-2	6.742135E-3	8.222822E-2	3.673486E-2
10/19/2017  17:26:12.744977	-4.874668E-1	2.082484E-2	1.137250E-2	-1.013123E+1	2.477858E-2	1.437409E-2	6.951371E-2	3.927877E-2
10/19/2017  17:26:12.745977	-5.408487E-1	1.573716E-2	1.137250E-2	-1.013378E+1	2.732853E-2	9.286120E-3	6.951371E-2	1.892744E-2
10/19/2017  17:26:12.746977	-3.501989E-1	1.319332E-2	1.646291E-2	-1.015160E+1	2.477858E-2	2.709402E-2	7.205661E-2	2.910311E-2
10/19/2017  17:26:12.747977	1.632846E-1	1.828100E-2	2.664372E-2	-1.013887E+1	1.457878E-2	2.963800E-2	7.714242E-2	2.910311E-2
10/19/2017  17:26:12.748977	1.007228E+0	1.319332E-2	2.409852E-2	-1.013123E+1	3.497837E-2	2.200605E-2	8.731403E-2	3.419094E-2
10/19/2017  17:26:12.749977	3.335985E-1	8.105642E-3	2.918892E-2	-1.013887E+1	2.222863E-2	1.437409E-2	7.459952E-2	3.164702E-2
10/19/2017  17:26:12.750977	-4.086648E-1	5.561801E-3	1.137250E-2	-1.012869E+1	3.497837E-2	1.691808E-2	7.205661E-2	2.910311E-2
10/19/2017  17:26:12.751977	-6.295316E-2	1.573716E-2	1.900811E-2	-1.013123E+1	2.987847E-2	2.455003E-2	7.205661E-2	3.164702E-2
10/19/2017  17:26:12.752977	-4.671308E-1	1.828100E-2	1.646291E-2	-1.014396E+1	2.222863E-2	2.709402E-2	7.714242E-2	1.638352E-2
10/19/2017  17:26:12.753977	1.197878E+0	2.336868E-2	1.137250E-2	-1.015160E+1	1.457878E-2	2.455003E-2	8.222822E-2	2.910311E-2
10/19/2017  17:26:12.754977	4.810343E-1	1.319332E-2	2.918892E-2	-1.012869E+1	1.457878E-2	2.200605E-2	8.222822E-2	4.691052E-2
10/19/2017  17:26:12.755977	-8.077585E-1	8.105642E-3	2.918892E-2	-1.012359E+1	2.222863E-2	1.946206E-2	7.205661E-2	3.419094E-2
10/19/2017  17:26:12.756977	-8.484305E-1	1.064948E-2	1.137250E-2	-1.013632E+1	2.987847E-2	1.183011E-2	6.951371E-2	3.673486E-2
10/19/2017  17:26:12.757977	6.030502E-1	1.573716E-2	1.391770E-2	-1.015160E+1	2.987847E-2	1.183011E-2	6.951371E-2	2.655919E-2
10/19/2017  17:26:12.758977	5.089963E-1	1.064948E-2	1.900811E-2	-1.013378E+1	2.477858E-2	2.455003E-2	7.459952E-2	2.655919E-2
10/19/2017  17:26:12.759977	1.330677E-2	2.082484E-2	1.900811E-2	-1.014142E+1	2.222863E-2	2.963800E-2	7.714242E-2	2.655919E-2
10/19/2017  17:26:12.760977	-3.247789E-1	8.105642E-3	1.900811E-2	-1.013632E+1	1.457878E-2	1.691808E-2	8.477112E-2	3.164702E-2
10/19/2017  17:26:12.761977	7.177272E-2	8.105642E-3	2.409852E-2	-1.013123E+1	1.712873E-2	1.691808E-2	8.985693E-2	3.673486E-2
10/19/2017  17:26:12.762977	2.166666E-1	1.064948E-2	1.137250E-2	-1.012614E+1	2.732853E-2	1.183011E-2	6.951371E-2	3.673486E-2
10/19/2017  17:26:12.763977	1.353227E-1	1.064948E-2	1.137250E-2	-1.014396E+1	2.987847E-2	1.946206E-2	8.477112E-2	2.910311E-2
10/19/2017  17:26:12.764977	2.093276E-2	2.336868E-2	2.918892E-2	-1.013887E+1	1.967868E-2	3.472597E-2	7.459952E-2	3.164702E-2
								
10/19/2017  17:26:12.765977	6.923072E-2	2.591253E-2	2.155331E-2	-1.013378E+1	1.457878E-2	1.946206E-2	8.222822E-2	3.164702E-2
10/19/2017  17:26:12.766977	1.276967E-1	8.105642E-3	2.155331E-2	-1.013632E+1	2.477858E-2	6.742135E-3	8.222822E-2	3.419094E-2
10/19/2017  17:26:12.767977	2.827585E-1	4.741205E-4	1.900811E-2	-1.013887E+1	3.497837E-2	1.437409E-2	7.205661E-2	3.927877E-2
10/19/2017  17:26:12.768977	1.810786E-1	1.319332E-2	1.391770E-2	-1.013632E+1	2.987847E-2	3.218199E-2	7.205661E-2	3.673486E-2
10/19/2017  17:26:12.769977	2.064986E-1	1.828100E-2	1.900811E-2	-1.013378E+1	1.967868E-2	1.946206E-2	7.205661E-2	2.655919E-2
10/19/2017  17:26:12.770977	6.923072E-2	2.082484E-2	1.391770E-2	-1.014142E+1	2.477858E-2	2.455003E-2	7.714242E-2	2.147136E-2
10/19/2017  17:26:12.771977	5.906273E-2	3.100021E-2	2.409852E-2	-1.013632E+1	1.967868E-2	1.946206E-2	8.222822E-2	3.164702E-2
10/19/2017  17:26:12.772977	6.160473E-2	1.064948E-2	1.900811E-2	-1.012869E+1	2.222863E-2	2.200605E-2	7.459952E-2	3.164702E-2
10/19/2017  17:26:12.773977	6.668872E-2	4.741205E-4	1.900811E-2	-1.012869E+1	9.478889E-3	1.183011E-2	7.459952E-2	3.164702E-2
10/19/2017  17:26:12.774977	1.429487E-1	1.064948E-2	1.646291E-2	-1.013887E+1	2.732853E-2	1.946206E-2	7.205661E-2	2.910311E-2
10/19/2017  17:26:12.775977	2.217506E-1	1.573716E-2	1.137250E-2	-1.013632E+1	4.262821E-2	2.709402E-2	7.968532E-2	2.147136E-2
10/19/2017  17:26:12.776977	8.194071E-2	1.828100E-2	1.646291E-2	-1.015160E+1	2.222863E-2	2.709402E-2	7.459952E-2	2.655919E-2
10/19/2017  17:26:12.777977	-3.247789E-1	1.573716E-2	1.391770E-2	-1.013632E+1	1.457878E-2	2.455003E-2	6.697081E-2	3.673486E-2
10/19/2017  17:26:12.778977	8.194071E-2	1.319332E-2	2.409852E-2	-1.012614E+1	1.457878E-2	1.946206E-2	8.222822E-2	3.164702E-2
10/19/2017  17:26:12.779977	-2.866490E-1	2.082484E-2	1.900811E-2	-1.013887E+1	6.928941E-3	1.946206E-2	7.205661E-2	2.910311E-2
10/19/2017  17:26:12.780977	-4.007518E-2	3.017961E-3	1.900811E-2	-1.013887E+1	2.732853E-2	9.286120E-3	7.459952E-2	4.182269E-2
10/19/2017  17:26:12.781977	2.522546E-1	1.064948E-2	1.900811E-2	-1.014142E+1	2.987847E-2	1.946206E-2	7.205661E-2	4.182269E-2
10/19/2017  17:26:12.782977	2.675065E-1	2.082484E-2	2.155331E-2	-1.012614E+1	2.222863E-2	3.472597E-2	7.459952E-2	2.147136E-2
10/19/2017  17:26:12.783977	3.920644E-1	2.336868E-2	2.155331E-2	-1.013378E+1	1.457878E-2	2.709402E-2	8.222822E-2	2.401527E-2
10/19/2017  17:26:12.784977	4.174844E-1	1.828100E-2	2.409852E-2	-1.014651E+1	1.457878E-2	1.691808E-2	8.222822E-2	3.164702E-2
10/19/2017  17:26:12.785977	-1.544651E-1	1.319332E-2	2.409852E-2	-1.013632E+1	2.222863E-2	2.200605E-2	7.205661E-2	4.182269E-2
10/19/2017  17:26:12.786977	-1.018744E+0	5.561801E-3	1.900811E-2	-1.015160E+1	2.222863E-2	1.691808E-2	6.951371E-2	3.164702E-2
10/19/2017  17:26:12.787977	-2.358090E-1	5.561801E-3	1.900811E-2	-1.013632E+1	2.222863E-2	2.200605E-2	7.205661E-2	3.164702E-2
10/19/2017  17:26:12.788977	6.589742E-1	2.082484E-2	1.137250E-2	-1.014396E+1	2.987847E-2	2.709402E-2	7.714242E-2	2.655919E-2
10/19/2017  17:26:12.789977	9.614719E-1	2.845637E-2	1.137250E-2	-1.014142E+1	2.477858E-2	2.455003E-2	7.459952E-2	2.655919E-2
10/19/2017  17:26:12.790977	1.047900E+0	1.319332E-2	2.155331E-2	-1.013632E+1	1.712873E-2	1.946206E-2	7.205661E-2	3.419094E-2
10/19/2017  17:26:12.791977	3.158045E-1	1.573716E-2	2.918892E-2	-1.013632E+1	1.967868E-2	1.183011E-2	7.714242E-2	3.927877E-2
10/19/2017  17:26:12.792977	5.143673E-2	1.573716E-2	1.900811E-2	-1.013378E+1	2.477858E-2	1.437409E-2	7.459952E-2	2.910311E-2
10/19/2017  17:26:12.793977	3.005525E-1	1.064948E-2	1.137250E-2	-1.013632E+1	2.732853E-2	1.946206E-2	6.951371E-2	2.910311E-2
10/19/2017  17:26:12.794977	1.963306E-1	2.591253E-2	1.137250E-2	-1.014905E+1	2.732853E-2	2.455003E-2	6.951371E-2	2.655919E-2
10/19/2017  17:26:12.795977	-3.934129E-1	2.082484E-2	1.900811E-2	-1.014396E+1	2.732853E-2	3.981394E-2	7.205661E-2	2.910311E-2
10/19/2017  17:26:12.796977	-7.057916E-2	4.741205E-4	1.646291E-2	-1.013632E+1	2.222863E-2	1.946206E-2	7.968532E-2	2.910311E-2
10/19/2017  17:26:12.797977	-6.803716E-2	1.319332E-2	1.646291E-2	-1.013887E+1	2.222863E-2	4.198150E-3	7.459952E-2	3.164702E-2
								
10/19/2017  17:26:12.798977	8.194071E-2	1.828100E-2	2.155331E-2	-1.013632E+1	2.477858E-2	1.437409E-2	7.459952E-2	4.182269E-2
10/19/2017  17:26:12.799977	-1.188771E-1	5.561801E-3	1.391770E-2	-1.012105E+1	2.732853E-2	1.946206E-2	7.205661E-2	4.182269E-2
10/19/2017  17:26:12.800977	-1.417551E-1	1.319332E-2	1.137250E-2	-1.012869E+1	1.202884E-2	1.946206E-2	6.442791E-2	2.910311E-2
10/19/2017  17:26:12.801977	5.680776E-3	2.082484E-2	1.646291E-2	-1.014142E+1	2.222863E-2	2.455003E-2	7.459952E-2	2.401527E-2
10/19/2017  17:26:12.802977	9.719269E-2	2.591253E-2	1.900811E-2	-1.013887E+1	3.242842E-2	2.455003E-2	8.222822E-2	2.910311E-2
10/19/2017  17:26:12.803977	-1.719720E-2	1.573716E-2	2.664372E-2	-1.013887E+1	1.457878E-2	1.946206E-2	7.968532E-2	3.164702E-2
10/19/2017  17:26:12.804977	-2.968170E-1	1.573716E-2	2.918892E-2	-1.013123E+1	3.497837E-2	1.946206E-2	7.205661E-2	3.164702E-2
10/19/2017  17:26:12.805977	-4.213748E-1	8.105642E-3	2.155331E-2	-1.011850E+1	2.477858E-2	1.437409E-2	7.714242E-2	3.673486E-2
10/19/2017  17:26:12.806977	-2.536030E-1	1.319332E-2	1.900811E-2	-1.013378E+1	2.477858E-2	1.437409E-2	6.951371E-2	5.199836E-2
10/19/2017  17:26:12.807977	7.276081E-1	1.319332E-2	3.736893E-3	-1.014396E+1	2.987847E-2	1.437409E-2	6.442791E-2	3.419094E-2
10/19/2017  17:26:12.808977	6.589742E-1	8.105642E-3	2.409852E-2	-1.013378E+1	2.222863E-2	1.946206E-2	7.714242E-2	1.129569E-2
10/19/2017  17:26:12.809977	-1.214191E-1	2.082484E-2	2.155331E-2	-1.011850E+1	2.222863E-2	3.472597E-2	7.968532E-2	2.910311E-2
10/19/2017  17:26:12.810977	-1.722591E-1	1.064948E-2	2.409852E-2	-1.014142E+1	1.967868E-2	2.709402E-2	8.222822E-2	2.655919E-2
10/19/2017  17:26:12.811977	-5.179708E-1	5.561801E-3	2.664372E-2	-1.011596E+1	1.712873E-2	1.437409E-2	8.222822E-2	3.419094E-2
10/19/2017  17:26:12.812977	2.093276E-2	1.319332E-2	2.155331E-2	-1.013378E+1	2.987847E-2	1.437409E-2	7.714242E-2	3.673486E-2
10/19/2017  17:26:12.813977	6.640582E-1	1.064948E-2	2.155331E-2	-1.013887E+1	1.712873E-2	1.946206E-2	6.188501E-2	3.164702E-2
10/19/2017  17:26:12.814977	2.242926E-1	1.319332E-2	2.155331E-2	-1.013887E+1	1.967868E-2	1.691808E-2	6.951371E-2	2.910311E-2
10/19/2017  17:26:12.815977	-2.841070E-1	2.082484E-2	1.391770E-2	-1.013632E+1	2.477858E-2	2.709402E-2	8.477112E-2	2.655919E-2
10/19/2017  17:26:12.816977	1.988726E-1	2.336868E-2	2.918892E-2	-1.013632E+1	1.457878E-2	2.963800E-2	8.222822E-2	2.910311E-2
10/19/2017  17:26:12.817977	-2.358090E-1	1.064948E-2	2.155331E-2	-1.013632E+1	9.478889E-3	1.946206E-2	8.222822E-2	3.419094E-2
10/19/2017  17:26:12.818977	2.751325E-1	1.064948E-2	1.391770E-2	-1.013887E+1	1.712873E-2	1.183011E-2	7.205661E-2	3.927877E-2
10/19/2017  17:26:12.819977	4.352784E-1	1.319332E-2	1.900811E-2	-1.012614E+1	2.477858E-2	1.183011E-2	7.459952E-2	2.910311E-2
10/19/2017  17:26:12.820977	7.177272E-2	1.573716E-2	1.191689E-3	-1.013632E+1	2.987847E-2	1.183011E-2	6.951371E-2	2.910311E-2
10/19/2017  17:26:12.821977	-1.087091E-1	2.591253E-2	1.391770E-2	-1.014651E+1	2.477858E-2	2.200605E-2	6.951371E-2	2.655919E-2
10/19/2017  17:26:12.822977	-7.137046E-1	2.082484E-2	1.900811E-2	-1.014142E+1	2.222863E-2	4.744590E-2	7.459952E-2	3.673486E-2
10/19/2017  17:26:12.823977	-6.857426E-1	4.117557E-2	1.900811E-2	-1.013123E+1	3.242842E-2	1.946206E-2	7.714242E-2	2.910311E-2
10/19/2017  17:26:12.824977	8.956670E-2	1.573716E-2	2.409852E-2	-1.013887E+1	2.222863E-2	1.946206E-2	7.968532E-2	3.164702E-2
10/19/2017  17:26:12.825977	5.674623E-1	4.741205E-4	2.155331E-2	-1.013632E+1	1.967868E-2	1.691808E-2	7.459952E-2	3.673486E-2
10/19/2017  17:26:12.826977	3.920644E-1	1.319332E-2	2.155331E-2	-1.013123E+1	2.222863E-2	1.691808E-2	7.968532E-2	3.927877E-2
10/19/2017  17:26:12.827977	-1.945217E-3	1.064948E-2	1.391770E-2	-1.013378E+1	2.477858E-2	1.946206E-2	6.188501E-2	2.655919E-2
10/19/2017  17:26:12.828977	1.200707E-1	2.082484E-2	1.137250E-2	-1.013887E+1	1.712873E-2	1.946206E-2	7.714242E-2	3.164702E-2
10/19/2017  17:26:12.829977	3.946064E-1	1.319332E-2	1.900811E-2	-1.014142E+1	4.007827E-2	2.455003E-2	7.714242E-2	3.164702E-2
10/19/2017  17:26:12.830977	5.522103E-1	1.319332E-2	2.918892E-2	-1.013632E+1	1.202884E-2	2.200605E-2	7.968532E-2	3.164702E-2
								
10/19/2017  17:26:12.831977	-2.663130E-1	5.561801E-3	2.409852E-2	-1.013123E+1	1.457878E-2	1.691808E-2	8.222822E-2	3.164702E-2
10/19/2017  17:26:12.832977	-9.196064E-1	5.561801E-3	1.900811E-2	-1.013378E+1	2.477858E-2	1.437409E-2	7.968532E-2	3.419094E-2
10/19/2017  17:26:12.833977	-1.748011E-1	1.064948E-2	2.664372E-2	-1.014142E+1	2.477858E-2	1.946206E-2	7.459952E-2	3.927877E-2
10/19/2017  17:26:12.834977	5.140803E-1	1.319332E-2	1.391770E-2	-1.012869E+1	2.987847E-2	1.691808E-2	6.697081E-2	3.164702E-2
10/19/2017  17:26:12.835977	4.632404E-1	2.082484E-2	8.827299E-3	-1.013378E+1	2.732853E-2	2.455003E-2	7.205661E-2	3.164702E-2
10/19/2017  17:26:12.836977	-6.501546E-1	1.828100E-2	1.900811E-2	-1.012105E+1	1.967868E-2	2.963800E-2	7.714242E-2	2.401527E-2
10/19/2017  17:26:12.837977	2.344606E-1	1.319332E-2	1.646291E-2	-1.013632E+1	2.222863E-2	1.946206E-2	7.205661E-2	2.147136E-2
10/19/2017  17:26:12.838977	1.330677E-2	1.319332E-2	2.664372E-2	-1.015160E+1	2.477858E-2	1.183011E-2	8.222822E-2	3.164702E-2
10/19/2017  17:26:12.839977	-1.570071E-1	3.017961E-3	2.664372E-2	-1.012614E+1	2.222863E-2	1.946206E-2	7.459952E-2	3.419094E-2
10/19/2017  17:26:12.840977	2.624225E-1	1.064948E-2	1.646291E-2	-1.013632E+1	2.477858E-2	2.709402E-2	7.205661E-2	2.910311E-2
10/19/2017  17:26:12.841977	5.242483E-1	1.319332E-2	8.827299E-3	-1.014142E+1	1.712873E-2	1.437409E-2	7.459952E-2	2.401527E-2
10/19/2017  17:26:12.842977	2.347476E-2	1.573716E-2	1.900811E-2	-1.014651E+1	1.712873E-2	2.709402E-2	6.188501E-2	3.164702E-2
10/19/2017  17:26:12.843977	-1.595491E-1	1.319332E-2	3.173413E-2	-1.013887E+1	2.222863E-2	2.709402E-2	7.968532E-2	3.164702E-2
10/19/2017  17:26:12.844977	1.454906E-1	4.741205E-4	1.900811E-2	-1.012614E+1	1.967868E-2	1.437409E-2	6.442791E-2	3.673486E-2
10/19/2017  17:26:12.845977	5.928822E-1	5.561801E-3	2.918892E-2	-1.012869E+1	2.477858E-2	9.286120E-3	6.697081E-2	3.164702E-2
10/19/2017  17:26:12.846977	3.412245E-1	2.082484E-2	1.137250E-2	-1.013123E+1	3.242842E-2	2.200605E-2	6.951371E-2	3.164702E-2
10/19/2017  17:26:12.847977	1.658266E-1	1.828100E-2	1.646291E-2	-1.013887E+1	2.732853E-2	2.200605E-2	7.459952E-2	2.655919E-2
10/19/2017  17:26:12.848977	1.937886E-1	1.064948E-2	2.664372E-2	-1.013887E+1	1.712873E-2	2.455003E-2	7.968532E-2	2.401527E-2
10/19/2017  17:26:12.849977	1.912466E-1	1.064948E-2	2.664372E-2	-1.013632E+1	1.457878E-2	1.437409E-2	8.222822E-2	4.182269E-2
10/19/2017  17:26:12.850977	6.414672E-2	2.336868E-2	1.900811E-2	-1.012614E+1	2.477858E-2	1.691808E-2	7.714242E-2	3.927877E-2
10/19/2017  17:26:12.851977	9.210870E-2	1.573716E-2	1.137250E-2	-1.013887E+1	2.987847E-2	1.946206E-2	6.951371E-2	2.401527E-2
10/19/2017  17:26:12.852977	-2.485190E-1	1.064948E-2	1.900811E-2	-1.014396E+1	2.477858E-2	2.709402E-2	7.714242E-2	2.910311E-2
10/19/2017  17:26:12.853977	-1.194142E+0	2.082484E-2	2.409852E-2	-1.013887E+1	1.457878E-2	2.709402E-2	8.222822E-2	3.419094E-2
10/19/2017  17:26:12.854977	-5.459327E-1	-9.701241E-3	2.664372E-2	-1.013378E+1	9.478889E-3	1.691808E-2	8.222822E-2	3.419094E-2
10/19/2017  17:26:12.855977	8.445400E-1	8.105642E-3	1.137250E-2	-1.013378E+1	1.967868E-2	1.691808E-2	6.951371E-2	3.927877E-2
10/19/2017  17:26:12.856977	7.581121E-1	1.064948E-2	1.646291E-2	-1.013632E+1	4.007827E-2	1.946206E-2	7.205661E-2	3.927877E-2
10/19/2017  17:26:12.857977	-6.247347E-1	2.082484E-2	2.155331E-2	-1.013378E+1	2.477858E-2	3.218199E-2	7.205661E-2	2.401527E-2
10/19/2017  17:26:12.858977	-2.228120E-2	1.064948E-2	1.646291E-2	-1.013632E+1	1.967868E-2	1.946206E-2	8.222822E-2	2.147136E-2
10/19/2017  17:26:12.859977	5.979662E-1	8.105642E-3	1.900811E-2	-1.014905E+1	2.222863E-2	1.691808E-2	7.714242E-2	3.673486E-2
10/19/2017  17:26:12.860977	8.597920E-1	1.064948E-2	2.155331E-2	-1.012614E+1	2.477858E-2	1.691808E-2	7.459952E-2	3.164702E-2
10/19/2017  17:26:12.861977	1.607426E-1	1.319332E-2	1.391770E-2	-1.014142E+1	2.987847E-2	1.946206E-2	6.951371E-2	3.419094E-2
10/19/2017  17:26:12.862977	-9.571210E-3	1.828100E-2	1.391770E-2	-1.014651E+1	2.477858E-2	2.963800E-2	7.205661E-2	3.673486E-2
10/19/2017  17:26:12.863977	2.268346E-1	1.828100E-2	2.155331E-2	-1.012869E+1	1.457878E-2	2.709402E-2	7.714242E-2	2.655919E-2
								
10/19/2017  17:26:12.864977	5.013703E-1	1.573716E-2	1.900811E-2	-1.013123E+1	1.457878E-2	1.437409E-2	8.477112E-2	2.910311E-2
10/19/2017  17:26:12.865977	1.378647E-1	1.064948E-2	2.155331E-2	-1.013887E+1	2.477858E-2	2.200605E-2	7.205661E-2	3.673486E-2
10/19/2017  17:26:12.866977	-7.566315E-2	-2.069720E-3	1.646291E-2	-1.013887E+1	1.712873E-2	2.455003E-2	7.205661E-2	3.419094E-2
10/19/2017  17:26:12.867977	2.090406E-1	1.573716E-2	1.137250E-2	-1.013123E+1	2.987847E-2	2.709402E-2	7.968532E-2	3.164702E-2
10/19/2017  17:26:12.868977	-1.465521E-2	1.064948E-2	2.409852E-2	-1.014142E+1	2.987847E-2	1.946206E-2	6.951371E-2	1.892744E-2
10/19/2017  17:26:12.869977	5.445843E-1	1.828100E-2	2.664372E-2	-1.014142E+1	1.457878E-2	2.709402E-2	9.239983E-2	2.910311E-2
10/19/2017  17:26:12.870977	6.971042E-1	1.064948E-2	3.173413E-2	-1.013123E+1	1.967868E-2	2.455003E-2	8.222822E-2	3.673486E-2
10/19/2017  17:26:12.871977	-1.849691E-1	1.064948E-2	2.664372E-2	-1.013378E+1	1.967868E-2	1.946206E-2	7.205661E-2	3.673486E-2
10/19/2017  17:26:12.872977	-4.798408E-1	1.319332E-2	1.137250E-2	-1.013632E+1	2.222863E-2	2.200605E-2	7.714242E-2	2.910311E-2
10/19/2017  17:26:12.873977	-8.328914E-2	1.319332E-2	1.137250E-2	-1.013887E+1	3.242842E-2	2.455003E-2	7.205661E-2	2.655919E-2
10/19/2017  17:26:12.874977	2.192086E-1	1.573716E-2	1.900811E-2	-1.014396E+1	2.987847E-2	4.235793E-2	7.714242E-2	2.910311E-2
10/19/2017  17:26:12.875977	-1.722591E-1	5.561801E-3	2.918892E-2	-1.014396E+1	9.478889E-3	1.946206E-2	8.222822E-2	3.164702E-2
10/19/2017  17:26:12.876977	-3.349469E-1	1.319332E-2	2.155331E-2	-1.014142E+1	1.712873E-2	1.183011E-2	8.222822E-2	2.401527E-2
10/19/2017  17:26:12.877977	-2.586870E-1	2.336868E-2	1.900811E-2	-1.013123E+1	2.222863E-2	1.183011E-2	7.714242E-2	4.182269E-2
10/19/2017  17:26:12.878977	3.364275E-2	1.319332E-2	1.137250E-2	-1.013378E+1	2.987847E-2	1.183011E-2	7.205661E-2	1.638352E-2
10/19/2017  17:26:12.879977	-3.753318E-2	2.591253E-2	2.155331E-2	-1.015415E+1	2.477858E-2	2.963800E-2	7.459952E-2	2.910311E-2
10/19/2017  17:26:12.880977	-6.549516E-2	1.319332E-2	2.664372E-2	-1.013887E+1	1.457878E-2	2.200605E-2	8.222822E-2	3.164702E-2
10/19/2017  17:26:12.881977	-3.499119E-2	8.105642E-3	2.664372E-2	-1.012869E+1	1.457878E-2	1.437409E-2	7.714242E-2	3.419094E-2
10/19/2017  17:26:12.882977	1.048187E-1	1.064948E-2	1.137250E-2	-1.013632E+1	2.477858E-2	1.183011E-2	7.205661E-2	2.910311E-2
10/19/2017  17:26:12.883977	1.048187E-1	1.319332E-2	1.391770E-2	-1.014142E+1	2.222863E-2	2.455003E-2	6.697081E-2	3.164702E-2
10/19/2017  17:26:12.884977	5.397873E-2	1.828100E-2	2.155331E-2	-1.012869E+1	1.457878E-2	2.963800E-2	7.714242E-2	2.401527E-2
10/19/2017  17:26:12.885977	-2.281830E-1	1.064948E-2	2.155331E-2	-1.013378E+1	1.457878E-2	2.200605E-2	7.714242E-2	2.401527E-2
10/19/2017  17:26:12.886977	-1.519231E-1	8.105642E-3	1.646291E-2	-1.012614E+1	1.967868E-2	1.183011E-2	7.968532E-2	3.673486E-2
10/19/2017  17:26:12.887977	-1.010831E-1	8.105642E-3	1.137250E-2	-1.013123E+1	2.732853E-2	1.183011E-2	6.697081E-2	4.945444E-2
10/19/2017  17:26:12.888977	-9.571210E-3	1.319332E-2	1.646291E-2	-1.014142E+1	2.477858E-2	2.455003E-2	6.697081E-2	3.164702E-2
10/19/2017  17:26:12.889977	-1.824271E-1	1.573716E-2	1.900811E-2	-1.014651E+1	2.222863E-2	2.709402E-2	7.714242E-2	1.892744E-2
10/19/2017  17:26:12.890977	5.598363E-1	1.319332E-2	1.900811E-2	-1.011086E+1	2.477858E-2	2.709402E-2	7.714242E-2	3.164702E-2
10/19/2017  17:26:12.891977	6.055922E-1	2.336868E-2	2.918892E-2	-1.012614E+1	1.712873E-2	1.437409E-2	8.477112E-2	3.164702E-2
10/19/2017  17:26:12.892977	1.200707E-1	5.561801E-3	1.900811E-2	-1.012869E+1	2.987847E-2	9.286120E-3	6.697081E-2	3.673486E-2
10/19/2017  17:26:12.893977	1.251547E-1	1.319332E-2	1.646291E-2	-1.013632E+1	2.987847E-2	2.455003E-2	7.205661E-2	3.164702E-2
10/19/2017  17:26:12.894977	-1.824271E-1	1.319332E-2	1.646291E-2	-1.013887E+1	1.967868E-2	1.691808E-2	6.951371E-2	2.401527E-2
10/19/2017  17:26:12.895977	1.709106E-1	2.591253E-2	8.827299E-3	-1.014142E+1	1.712873E-2	2.200605E-2	7.714242E-2	2.147136E-2
10/19/2017  17:26:12.896977	1.353227E-1	1.319332E-2	1.646291E-2	-1.013123E+1	2.222863E-2	1.946206E-2	6.442791E-2	3.419094E-2
								
10/19/2017  17:26:12.897977	6.437222E-1	1.573716E-2	4.191494E-2	-1.013632E+1	2.477858E-2	2.963800E-2	7.968532E-2	3.164702E-2
10/19/2017  17:26:12.898977	3.513925E-1	-2.069720E-3	1.900811E-2	-1.013123E+1	1.712873E-2	1.437409E-2	7.459952E-2	3.164702E-2
10/19/2017  17:26:12.899977	-3.069849E-1	8.105642E-3	6.282096E-3	-1.013378E+1	1.712873E-2	6.742135E-3	6.951371E-2	2.910311E-2
10/19/2017  17:26:12.900977	-4.874668E-1	1.064948E-2	1.646291E-2	-1.013632E+1	2.987847E-2	2.709402E-2	7.205661E-2	2.655919E-2
10/19/2017  17:26:12.901977	6.414672E-2	2.082484E-2	1.646291E-2	-1.014142E+1	2.987847E-2	4.235793E-2	7.459952E-2	3.164702E-2
10/19/2017  17:26:12.902977	1.480326E-1	5.561801E-3	1.900811E-2	-1.013632E+1	2.222863E-2	2.200605E-2	7.459952E-2	3.164702E-2
10/19/2017  17:26:12.903977	2.598805E-1	1.319332E-2	2.155331E-2	-1.012869E+1	1.967868E-2	1.946206E-2	7.714242E-2	3.164702E-2
10/19/2017  17:26:12.904977	3.437665E-1	1.319332E-2	2.155331E-2	-1.012614E+1	2.222863E-2	1.437409E-2	7.714242E-2	3.673486E-2
10/19/2017  17:26:12.905977	8.956670E-2	8.105642E-3	1.137250E-2	-1.013378E+1	2.987847E-2	1.691808E-2	6.951371E-2	2.910311E-2
10/19/2017  17:26:12.906977	-7.566315E-2	-2.069720E-3	1.137250E-2	-1.014651E+1	2.477858E-2	1.946206E-2	6.697081E-2	2.655919E-2
10/19/2017  17:26:12.907977	2.166666E-1	1.319332E-2	2.155331E-2	-1.013632E+1	1.967868E-2	1.946206E-2	7.459952E-2	2.910311E-2
10/19/2017  17:26:12.908977	9.973469E-2	1.828100E-2	1.900811E-2	-1.014651E+1	3.752832E-2	2.200605E-2	7.968532E-2	2.401527E-2
10/19/2017  17:26:12.909977	-1.544651E-1	1.573716E-2	2.155331E-2	-1.014396E+1	1.457878E-2	1.946206E-2	7.968532E-2	2.910311E-2
10/19/2017  17:26:12.910977	-3.171529E-1	8.105642E-3	2.664372E-2	-1.012614E+1	6.928941E-3	1.437409E-2	7.714242E-2	4.436661E-2
10/19/2017  17:26:12.911977	-1.519231E-1	8.105642E-3	1.137250E-2	-1.012105E+1	2.987847E-2	1.691808E-2	6.951371E-2	3.673486E-2
10/19/2017  17:26:12.912977	5.801723E-1	2.082484E-2	1.391770E-2	-1.013887E+1	1.967868E-2	2.709402E-2	6.697081E-2	3.164702E-2
10/19/2017  17:26:12.913977	2.471706E-1	2.082484E-2	1.646291E-2	-1.012869E+1	2.477858E-2	2.963800E-2	7.968532E-2	2.655919E-2
10/19/2017  17:26:12.914977	-1.973920E-2	1.573716E-2	2.409852E-2	-1.013887E+1	2.477858E-2	1.946206E-2	7.968532E-2	3.673486E-2
10/19/2017  17:26:12.915977	-3.374889E-1	1.064948E-2	1.137250E-2	-1.012105E+1	1.967868E-2	2.963800E-2	6.951371E-2	3.164702E-2
10/19/2017  17:26:12.916977	-5.205127E-1	1.573716E-2	1.137250E-2	-1.013378E+1	2.222863E-2	1.437409E-2	7.714242E-2	3.419094E-2
10/19/2017  17:26:12.917977	1.887046E-1	1.573716E-2	2.918892E-2	-1.013887E+1	2.222863E-2	1.946206E-2	6.697081E-2	2.401527E-2
10/19/2017  17:26:12.918977	5.445843E-1	2.336868E-2	2.409852E-2	-1.013887E+1	2.222863E-2	2.709402E-2	7.205661E-2	2.655919E-2
10/19/2017  17:26:12.919977	1.149867E-1	1.319332E-2	2.409852E-2	-1.014905E+1	1.712873E-2	9.286120E-3	7.714242E-2	3.419094E-2
10/19/2017  17:26:12.920977	-8.840184E-1	1.064948E-2	2.409852E-2	-1.013632E+1	2.732853E-2	2.455003E-2	8.222822E-2	3.673486E-2
10/19/2017  17:26:12.921977	-1.133134E+0	8.105642E-3	1.900811E-2	-1.012359E+1	1.712873E-2	1.183011E-2	7.968532E-2	3.673486E-2
10/19/2017  17:26:12.922977	-1.654244E+0	1.319332E-2	1.191689E-3	-1.013378E+1	2.732853E-2	1.437409E-2	6.951371E-2	2.910311E-2
10/19/2017  17:26:12.923977	6.920202E-1	8.105642E-3	1.646291E-2	-1.013123E+1	2.987847E-2	1.946206E-2	8.222822E-2	3.164702E-2
10/19/2017  17:26:12.924977	1.657979E+0	2.336868E-2	3.427933E-2	-1.013378E+1	2.477858E-2	3.726996E-2	8.222822E-2	3.164702E-2
10/19/2017  17:26:12.925977	1.080946E+0	5.561801E-3	1.900811E-2	-1.013123E+1	2.222863E-2	1.946206E-2	7.714242E-2	2.655919E-2
10/19/2017  17:26:12.926977	5.725463E-1	1.319332E-2	8.827299E-3	-1.013887E+1	1.712873E-2	1.183011E-2	7.459952E-2	2.655919E-2
10/19/2017  17:26:12.927977	-1.061671E-1	1.573716E-2	1.900811E-2	-1.013123E+1	2.477858E-2	1.437409E-2	7.968532E-2	3.673486E-2
10/19/2017  17:26:12.928977	3.030945E-1	8.105642E-3	1.137250E-2	-1.013887E+1	3.497837E-2	1.183011E-2	7.205661E-2	3.164702E-2
10/19/2017  17:26:12.929977	2.370026E-1	3.017961E-3	1.900811E-2	-1.013378E+1	2.477858E-2	1.946206E-2	6.951371E-2	3.164702E-2
								
10/19/2017  17:26:12.930977	1.404067E-1	1.319332E-2	1.900811E-2	-1.013378E+1	1.712873E-2	2.455003E-2	7.968532E-2	1.638352E-2
10/19/2017  17:26:12.931977	1.022767E-1	3.017961E-3	2.409852E-2	-1.013123E+1	2.222863E-2	1.946206E-2	8.222822E-2	3.164702E-2
10/19/2017  17:26:12.932977	1.378647E-1	8.105642E-3	1.900811E-2	-1.013123E+1	1.967868E-2	1.437409E-2	7.205661E-2	3.419094E-2
10/19/2017  17:26:12.933977	7.685671E-2	4.741205E-4	1.137250E-2	-1.014651E+1	2.222863E-2	1.946206E-2	6.697081E-2	3.164702E-2
10/19/2017  17:26:12.934977	2.855876E-2	1.319332E-2	2.155331E-2	-1.014142E+1	2.222863E-2	2.963800E-2	7.459952E-2	2.910311E-2
10/19/2017  17:26:12.935977	2.855876E-2	2.336868E-2	2.155331E-2	-1.014396E+1	1.457878E-2	2.963800E-2	8.222822E-2	2.910311E-2
10/19/2017  17:26:12.936977	4.381074E-2	5.561801E-3	2.155331E-2	-1.012105E+1	1.457878E-2	1.437409E-2	7.968532E-2	3.419094E-2
10/19/2017  17:26:12.937977	8.448270E-2	3.017961E-3	1.137250E-2	-1.012614E+1	3.752832E-2	1.183011E-2	7.205661E-2	3.419094E-2
10/19/2017  17:26:12.938977	9.719269E-2	1.828100E-2	1.900811E-2	-1.014142E+1	2.732853E-2	2.963800E-2	6.951371E-2	2.655919E-2
10/19/2017  17:26:12.939977	4.635274E-2	2.082484E-2	1.646291E-2	-1.013632E+1	1.967868E-2	2.200605E-2	7.714242E-2	2.910311E-2
10/19/2017  17:26:12.940977	-1.211321E-2	1.319332E-2	1.900811E-2	-1.014142E+1	1.967868E-2	1.691808E-2	8.222822E-2	2.910311E-2
10/19/2017  17:26:12.941977	-6.041116E-2	1.064948E-2	2.918892E-2	-1.012614E+1	1.712873E-2	1.691808E-2	8.222822E-2	4.945444E-2
10/19/2017  17:26:12.942977	-1.976790E-1	8.105642E-3	2.664372E-2	-1.014651E+1	1.967868E-2	1.691808E-2	7.205661E-2	3.673486E-2
10/19/2017  17:26:12.943977	-6.221927E-1	1.064948E-2	1.137250E-2	-1.013378E+1	2.477858E-2	1.946206E-2	6.697081E-2	2.655919E-2
10/19/2017  17:26:12.944977	-2.815650E-1	1.573716E-2	1.391770E-2	-1.012869E+1	2.987847E-2	2.963800E-2	7.459952E-2	2.655919E-2
10/19/2017  17:26:12.945977	-1.315871E-1	2.082484E-2	1.137250E-2	-1.013887E+1	2.222863E-2	2.709402E-2	7.459952E-2	1.892744E-2
10/19/2017  17:26:12.946977	4.276524E-1	1.828100E-2	2.664372E-2	-1.015415E+1	1.457878E-2	2.963800E-2	8.985693E-2	2.910311E-2
10/19/2017  17:26:12.947977	1.429487E-1	8.105642E-3	3.173413E-2	-1.013123E+1	1.457878E-2	2.455003E-2	8.222822E-2	3.164702E-2
10/19/2017  17:26:12.948977	4.683244E-1	3.017961E-3	2.409852E-2	-1.012614E+1	1.457878E-2	2.200605E-2	9.494273E-2	3.419094E-2
10/19/2017  17:26:12.949977	5.652073E-2	8.105642E-3	1.137250E-2	-1.012869E+1	2.222863E-2	9.286120E-3	7.459952E-2	3.419094E-2
10/19/2017  17:26:12.950977	2.547966E-1	1.319332E-2	1.646291E-2	-1.013378E+1	1.712873E-2	2.200605E-2	6.697081E-2	3.419094E-2
10/19/2017  17:26:12.951977	1.022767E-1	1.064948E-2	3.173413E-2	-1.012869E+1	2.987847E-2	2.455003E-2	6.697081E-2	3.164702E-2
10/19/2017  17:26:12.952977	-7.312115E-2	1.828100E-2	2.155331E-2	-1.014396E+1	2.222863E-2	2.709402E-2	7.459952E-2	2.655919E-2
10/19/2017  17:26:12.953977	-2.154730E-1	1.573716E-2	1.137250E-2	-1.013123E+1	1.967868E-2	2.455003E-2	7.459952E-2	3.164702E-2
10/19/2017  17:26:12.954977	-4.261718E-2	8.105642E-3	2.918892E-2	-1.012359E+1	1.712873E-2	1.691808E-2	7.714242E-2	3.927877E-2
10/19/2017  17:26:12.955977	-1.468391E-1	8.105642E-3	2.155331E-2	-1.012869E+1	2.987847E-2	1.691808E-2	7.205661E-2	2.910311E-2
10/19/2017  17:26:12.956977	3.488505E-1	3.017961E-3	1.646291E-2	-1.013887E+1	2.732853E-2	1.946206E-2	6.697081E-2	3.164702E-2
10/19/2017  17:26:12.957977	1.131786E+0	1.573716E-2	1.137250E-2	-1.012614E+1	2.732853E-2	1.437409E-2	7.205661E-2	2.655919E-2
10/19/2017  17:26:12.958977	7.123561E-1	3.354405E-2	1.900811E-2	-1.013632E+1	2.477858E-2	2.709402E-2	7.459952E-2	2.401527E-2
10/19/2017  17:26:12.959977	-1.973920E-2	1.573716E-2	2.155331E-2	-1.014142E+1	2.222863E-2	1.946206E-2	7.459952E-2	2.655919E-2
10/19/2017  17:26:12.960977	-8.331785E-1	5.561801E-3	2.155331E-2	-1.014651E+1	2.477858E-2	2.200605E-2	7.968532E-2	3.927877E-2
10/19/2017  17:26:12.961977	-6.577806E-1	8.105642E-3	2.409852E-2	-1.012359E+1	2.222863E-2	1.437409E-2	7.459952E-2	3.673486E-2
10/19/2017  17:26:12.962977	2.929265E-1	4.741205E-4	1.646291E-2	-1.012869E+1	2.477858E-2	2.455003E-2	8.222822E-2	2.401527E-2
								
10/19/2017  17:26:12.963977	1.887046E-1	8.105642E-3	1.900811E-2	-1.014142E+1	2.477858E-2	1.946206E-2	7.714242E-2	3.164702E-2
10/19/2017  17:26:12.964977	5.877982E-1	1.828100E-2	2.409852E-2	-1.013632E+1	2.987847E-2	3.218199E-2	7.205661E-2	3.419094E-2
10/19/2017  17:26:12.965977	7.377761E-1	1.064948E-2	2.918892E-2	-1.013123E+1	1.712873E-2	2.455003E-2	7.968532E-2	2.910311E-2
10/19/2017  17:26:12.966977	2.802165E-1	1.573716E-2	2.409852E-2	-1.013632E+1	1.457878E-2	1.946206E-2	8.477112E-2	2.655919E-2
10/19/2017  17:26:12.967977	7.431471E-2	1.064948E-2	1.137250E-2	-1.013378E+1	2.222863E-2	1.183011E-2	7.459952E-2	4.182269E-2
10/19/2017  17:26:12.968977	-4.162908E-1	1.573716E-2	1.900811E-2	-1.013378E+1	2.477858E-2	1.946206E-2	7.459952E-2	3.927877E-2
10/19/2017  17:26:12.969977	-5.484747E-1	1.319332E-2	1.900811E-2	-1.013632E+1	2.732853E-2	1.946206E-2	6.697081E-2	3.164702E-2
10/19/2017  17:26:12.970977	-2.205570E-1	1.828100E-2	1.137250E-2	-1.014142E+1	2.477858E-2	2.963800E-2	6.951371E-2	3.927877E-2
10/19/2017  17:26:12.971977	-1.442971E-1	2.082484E-2	1.900811E-2	-1.012105E+1	2.222863E-2	2.709402E-2	7.968532E-2	2.147136E-2
10/19/2017  17:26:12.972977	6.132182E-1	1.828100E-2	2.409852E-2	-1.013123E+1	2.732853E-2	1.946206E-2	7.714242E-2	2.910311E-2
10/19/2017  17:26:12.973977	3.208885E-1	1.064948E-2	2.155331E-2	-1.014142E+1	1.712873E-2	1.691808E-2	7.205661E-2	3.673486E-2
10/19/2017  17:26:12.974977	4.124004E-1	3.017961E-3	2.664372E-2	-1.013632E+1	2.477858E-2	1.691808E-2	7.459952E-2	3.673486E-2
10/19/2017  17:26:12.975977	3.107205E-1	1.064948E-2	1.900811E-2	-1.013632E+1	2.222863E-2	1.691808E-2	8.985693E-2	3.164702E-2
10/19/2017  17:26:12.976977	7.326921E-1	1.319332E-2	8.827299E-3	-1.013632E+1	2.732853E-2	1.183011E-2	7.205661E-2	2.910311E-2
10/19/2017  17:26:12.977977	6.589742E-1	2.591253E-2	1.391770E-2	-1.013887E+1	2.987847E-2	2.963800E-2	6.442791E-2	2.401527E-2
10/19/2017  17:26:12.978977	6.157602E-1	1.828100E-2	2.918892E-2	-1.014905E+1	2.477858E-2	3.218199E-2	7.714242E-2	3.164702E-2
10/19/2017  17:26:12.979977	-3.501989E-1	5.561801E-3	2.409852E-2	-1.013632E+1	9.478889E-3	1.946206E-2	6.697081E-2	3.164702E-2
10/19/2017  17:26:12.980977	-5.993147E-1	8.105642E-3	8.827299E-3	-1.012869E+1	1.712873E-2	2.200605E-2	8.222822E-2	3.927877E-2
10/19/2017  17:26:12.981977	-3.247789E-1	1.064948E-2	1.646291E-2	-1.013123E+1	2.222863E-2	1.437409E-2	7.205661E-2	4.182269E-2
10/19/2017  17:26:12.982977	-1.646331E-1	1.319332E-2	1.391770E-2	-1.013123E+1	3.497837E-2	3.726996E-2	7.205661E-2	3.419094E-2
10/19/2017  17:26:12.983977	5.420423E-1	1.064948E-2	1.900811E-2	-1.014142E+1	1.457878E-2	2.709402E-2	6.951371E-2	2.401527E-2
10/19/2017  17:26:12.984977	9.945179E-1	2.082484E-2	2.409852E-2	-1.013887E+1	1.967868E-2	2.709402E-2	8.222822E-2	2.655919E-2
10/19/2017  17:26:12.985977	-4.487215E-3	1.573716E-2	2.918892E-2	-1.013887E+1	1.967868E-2	2.200605E-2	7.968532E-2	3.419094E-2
10/19/2017  17:26:12.986977	-6.171087E-1	8.105642E-3	2.155331E-2	-1.012869E+1	2.477858E-2	1.437409E-2	7.459952E-2	3.927877E-2
10/19/2017  17:26:12.987977	-1.211936E+0	-4.613560E-3	1.391770E-2	-1.013123E+1	2.987847E-2	1.691808E-2	7.205661E-2	3.927877E-2
10/19/2017  17:26:12.988977	-1.442971E-1	1.319332E-2	1.391770E-2	-1.012614E+1	2.732853E-2	2.455003E-2	7.459952E-2	3.419094E-2
10/19/2017  17:26:12.989977	-1.945217E-3	1.573716E-2	1.646291E-2	-1.013378E+1	2.477858E-2	1.946206E-2	7.714242E-2	1.892744E-2
10/19/2017  17:26:12.990977	4.403624E-1	2.082484E-2	1.646291E-2	-1.014142E+1	2.222863E-2	2.455003E-2	7.205661E-2	2.910311E-2
10/19/2017  17:26:12.991977	-6.094827E-1	1.573716E-2	2.918892E-2	-1.013123E+1	1.457878E-2	1.946206E-2	8.222822E-2	3.164702E-2
10/19/2017  17:26:12.992977	-1.392131E-1	8.105642E-3	2.918892E-2	-1.012614E+1	1.457878E-2	1.691808E-2	8.477112E-2	3.927877E-2
10/19/2017  17:26:12.993977	3.183465E-1	3.017961E-3	1.900811E-2	-1.013378E+1	1.967868E-2	1.437409E-2	7.205661E-2	4.436661E-2
10/19/2017  17:26:12.994977	-1.010831E-1	5.561801E-3	6.282096E-3	-1.013632E+1	2.987847E-2	1.437409E-2	7.205661E-2	3.419094E-2
10/19/2017  17:26:12.995977	3.285145E-1	2.082484E-2	1.137250E-2	-1.014142E+1	2.732853E-2	2.455003E-2	7.459952E-2	1.892744E-2
								
10/19/2017  17:26:12.996977	1.582006E-1	1.573716E-2	1.900811E-2	-1.013887E+1	2.222863E-2	3.218199E-2	7.205661E-2	2.147136E-2
10/19/2017  17:26:12.997977	4.835763E-1	2.082484E-2	2.409852E-2	-1.014142E+1	1.712873E-2	2.455003E-2	8.222822E-2	2.147136E-2
10/19/2017  17:26:12.998977	2.929265E-1	1.319332E-2	1.900811E-2	-1.015669E+1	1.967868E-2	1.437409E-2	8.477112E-2	3.164702E-2
10/19/2017  17:26:12.999977	-2.688550E-1	1.064948E-2	1.900811E-2	-1.012614E+1	2.477858E-2	1.183011E-2	7.459952E-2	3.673486E-2
10/19/2017  17:26:13.000977	-5.408487E-1	1.064948E-2	1.646291E-2	-1.012869E+1	1.967868E-2	1.183011E-2	7.459952E-2	3.419094E-2
10/19/2017  17:26:13.001977	-4.515918E-2	3.017961E-3	8.827299E-3	-1.013632E+1	2.477858E-2	2.200605E-2	6.951371E-2	3.164702E-2
10/19/2017  17:26:13.002977	-1.211321E-2	1.828100E-2	1.900811E-2	-1.013887E+1	2.987847E-2	1.691808E-2	7.968532E-2	3.419094E-2
10/19/2017  17:26:13.003977	1.454906E-1	2.591253E-2	6.282096E-3	-1.014651E+1	1.202884E-2	2.709402E-2	7.459952E-2	2.401527E-2
10/19/2017  17:26:13.004977	2.166666E-1	1.573716E-2	2.409852E-2	-1.013887E+1	1.967868E-2	2.963800E-2	8.222822E-2	3.164702E-2
10/19/2017  17:26:13.005977	9.465070E-2	1.064948E-2	2.664372E-2	-1.013378E+1	9.478889E-3	1.946206E-2	8.222822E-2	4.182269E-2
10/19/2017  17:26:13.006977	1.861626E-1	1.319332E-2	1.900811E-2	-1.012359E+1	2.222863E-2	1.437409E-2	7.968532E-2	3.927877E-2
10/19/2017  17:26:13.007977	1.200707E-1	1.319332E-2	-3.898717E-3	-1.013887E+1	1.967868E-2	6.742135E-3	6.951371E-2	2.910311E-2
10/19/2017  17:26:13.008977	6.668872E-2	3.017961E-3	1.646291E-2	-1.014142E+1	2.477858E-2	1.946206E-2	7.714242E-2	2.910311E-2
10/19/2017  17:26:13.009977	-1.945217E-3	1.828100E-2	2.155331E-2	-1.013887E+1	2.222863E-2	3.981394E-2	7.714242E-2	3.164702E-2
10/19/2017  17:26:13.010977	1.937886E-1	1.573716E-2	2.155331E-2	-1.013887E+1	1.457878E-2	1.946206E-2	7.968532E-2	2.910311E-2
10/19/2017  17:26:13.011977	2.802165E-1	1.319332E-2	1.900811E-2	-1.014142E+1	2.222863E-2	6.742135E-3	7.459952E-2	3.673486E-2
10/19/2017  17:26:13.012977	1.582006E-1	2.336868E-2	1.646291E-2	-1.013632E+1	2.732853E-2	1.946206E-2	7.714242E-2	3.927877E-2
10/19/2017  17:26:13.013977	-2.053050E-1	1.064948E-2	1.391770E-2	-1.014396E+1	2.732853E-2	1.691808E-2	7.205661E-2	4.182269E-2
10/19/2017  17:26:13.014977	-4.162908E-1	1.319332E-2	8.827299E-3	-1.015160E+1	1.712873E-2	2.709402E-2	6.951371E-2	2.910311E-2
10/19/2017  17:26:13.015977	-1.341291E-1	1.828100E-2	2.155331E-2	-1.014142E+1	2.222863E-2	2.455003E-2	7.968532E-2	2.655919E-2
10/19/2017  17:26:13.016977	1.785366E-1	1.319332E-2	2.155331E-2	-1.013123E+1	2.732853E-2	1.946206E-2	7.459952E-2	3.164702E-2
10/19/2017  17:26:13.017977	2.115826E-1	1.319332E-2	1.137250E-2	-1.013123E+1	1.457878E-2	1.946206E-2	7.968532E-2	3.164702E-2
10/19/2017  17:26:13.018977	5.166223E-1	8.105642E-3	1.900811E-2	-1.012614E+1	1.457878E-2	1.946206E-2	7.205661E-2	3.164702E-2
10/19/2017  17:26:13.019977	7.555701E-1	5.561801E-3	1.391770E-2	-1.012614E+1	2.477858E-2	1.691808E-2	6.697081E-2	4.182269E-2
10/19/2017  17:26:13.020977	6.793102E-1	1.319332E-2	1.137250E-2	-1.013887E+1	2.987847E-2	1.946206E-2	7.205661E-2	2.655919E-2
10/19/2017  17:26:13.021977	-2.332670E-1	1.064948E-2	1.391770E-2	-1.014651E+1	2.222863E-2	1.946206E-2	8.222822E-2	2.655919E-2
10/19/2017  17:26:13.022977	-5.891467E-1	1.828100E-2	2.155331E-2	-1.014651E+1	1.967868E-2	2.709402E-2	7.459952E-2	4.691052E-2
10/19/2017  17:26:13.023977	1.836206E-1	1.064948E-2	2.409852E-2	-1.011596E+1	1.457878E-2	2.709402E-2	8.222822E-2	3.164702E-2
10/19/2017  17:26:13.024977	1.073607E-1	3.017961E-3	1.900811E-2	-1.013123E+1	1.457878E-2	1.437409E-2	8.222822E-2	2.147136E-2
10/19/2017  17:26:13.025977	3.110075E-2	8.105642E-3	1.900811E-2	-1.014396E+1	2.987847E-2	6.742135E-3	7.205661E-2	3.927877E-2
10/19/2017  17:26:13.026977	4.126874E-2	1.828100E-2	1.900811E-2	-1.013887E+1	3.242842E-2	2.200605E-2	6.697081E-2	3.419094E-2
10/19/2017  17:26:13.027977	1.076477E-2	1.573716E-2	1.900811E-2	-1.013378E+1	1.967868E-2	2.709402E-2	6.951371E-2	2.655919E-2
10/19/2017  17:26:13.028977	7.177272E-2	1.573716E-2	1.900811E-2	-1.014142E+1	1.967868E-2	2.963800E-2	7.459952E-2	2.655919E-2
								
10/19/2017  17:26:13.029977	3.872675E-2	1.319332E-2	2.664372E-2	-1.013632E+1	1.457878E-2	2.200605E-2	9.239983E-2	3.164702E-2
10/19/2017  17:26:13.030977	2.347476E-2	1.573716E-2	6.282096E-3	-1.013632E+1	2.477858E-2	2.709402E-2	7.459952E-2	3.927877E-2
10/19/2017  17:26:13.031977	3.110075E-2	1.319332E-2	1.900811E-2	-1.013887E+1	1.967868E-2	1.691808E-2	7.205661E-2	3.164702E-2
10/19/2017  17:26:13.032977	9.210870E-2	1.573716E-2	1.137250E-2	-1.013887E+1	2.477858E-2	2.455003E-2	6.951371E-2	3.164702E-2
10/19/2017  17:26:13.033977	8.448270E-2	2.336868E-2	1.391770E-2	-1.014142E+1	3.242842E-2	2.455003E-2	6.951371E-2	2.910311E-2
10/19/2017  17:26:13.034977	7.939871E-2	1.828100E-2	1.900811E-2	-1.014142E+1	2.987847E-2	2.963800E-2	8.222822E-2	2.910311E-2
10/19/2017  17:26:13.035977	2.093276E-2	5.561801E-3	2.409852E-2	-1.013887E+1	1.202884E-2	2.200605E-2	8.222822E-2	2.910311E-2
10/19/2017  17:26:13.036977	-2.307250E-1	8.105642E-3	2.664372E-2	-1.012869E+1	1.712873E-2	2.455003E-2	8.222822E-2	3.927877E-2
10/19/2017  17:26:13.037977	-4.874668E-1	5.561801E-3	1.391770E-2	-1.012869E+1	1.967868E-2	1.437409E-2	6.697081E-2	3.419094E-2
10/19/2017  17:26:13.038977	-5.916887E-1	1.573716E-2	1.137250E-2	-1.013378E+1	3.242842E-2	9.286120E-3	6.697081E-2	2.401527E-2
10/19/2017  17:26:13.039977	-3.832449E-1	3.100021E-2	1.900811E-2	-1.014396E+1	2.987847E-2	2.200605E-2	7.459952E-2	2.910311E-2
10/19/2017  17:26:13.040977	1.202962E+0	1.064948E-2	2.409852E-2	-1.013378E+1	1.457878E-2	1.946206E-2	7.714242E-2	3.927877E-2
10/19/2017  17:26:13.041977	8.114940E-1	-7.157401E-3	2.664372E-2	-1.013887E+1	1.712873E-2	1.437409E-2	7.968532E-2	3.164702E-2
10/19/2017  17:26:13.042977	4.403624E-1	1.064948E-2	1.900811E-2	-1.012614E+1	1.967868E-2	1.437409E-2	7.968532E-2	3.164702E-2
10/19/2017  17:26:13.043977	-1.620911E-1	1.064948E-2	1.391770E-2	-1.012614E+1	4.007827E-2	1.946206E-2	7.205661E-2	3.419094E-2
10/19/2017  17:26:13.044977	3.310565E-1	2.082484E-2	1.391770E-2	-1.013123E+1	2.987847E-2	1.946206E-2	6.697081E-2	2.401527E-2
10/19/2017  17:26:13.045977	-7.057916E-2	1.828100E-2	2.155331E-2	-1.013632E+1	2.477858E-2	2.709402E-2	7.205661E-2	2.910311E-2
10/19/2017  17:26:13.046977	-1.163351E-1	1.319332E-2	1.391770E-2	-1.013378E+1	2.222863E-2	2.455003E-2	7.968532E-2	2.401527E-2
10/19/2017  17:26:13.047977	-3.883289E-1	1.319332E-2	2.409852E-2	-1.013632E+1	1.457878E-2	2.200605E-2	8.731403E-2	2.401527E-2
10/19/2017  17:26:13.048977	-5.532717E-2	1.064948E-2	1.391770E-2	-1.014142E+1	2.222863E-2	6.742135E-3	7.205661E-2	3.419094E-2
10/19/2017  17:26:13.049977	7.177272E-2	1.573716E-2	1.900811E-2	-1.013632E+1	2.222863E-2	2.200605E-2	7.459952E-2	4.436661E-2
10/19/2017  17:26:13.050977	8.165780E-1	1.319332E-2	1.391770E-2	-1.012105E+1	2.987847E-2	2.709402E-2	7.459952E-2	2.910311E-2
10/19/2017  17:26:13.051977	4.657824E-1	1.828100E-2	1.646291E-2	-1.013123E+1	1.967868E-2	2.455003E-2	7.205661E-2	2.401527E-2
10/19/2017  17:26:13.052977	2.347476E-2	1.828100E-2	1.900811E-2	-1.013887E+1	1.967868E-2	1.691808E-2	6.697081E-2	2.910311E-2
10/19/2017  17:26:13.053977	1.861626E-1	1.319332E-2	1.391770E-2	-1.013123E+1	2.222863E-2	2.200605E-2	7.714242E-2	3.164702E-2
10/19/2017  17:26:13.054977	1.582006E-1	1.064948E-2	1.900811E-2	-1.015415E+1	1.967868E-2	1.183011E-2	6.697081E-2	3.673486E-2
10/19/2017  17:26:13.055977	-2.002210E-1	4.741205E-4	1.646291E-2	-1.013887E+1	2.477858E-2	2.455003E-2	6.951371E-2	3.164702E-2
10/19/2017  17:26:13.056977	-7.467505E-1	1.828100E-2	1.646291E-2	-1.012869E+1	2.477858E-2	1.946206E-2	8.731403E-2	2.655919E-2
10/19/2017  17:26:13.057977	-6.196507E-1	3.100021E-2	2.918892E-2	-1.013887E+1	2.732853E-2	2.709402E-2	7.205661E-2	2.655919E-2
10/19/2017  17:26:13.058977	8.702470E-2	1.064948E-2	2.155331E-2	-1.013378E+1	1.712873E-2	2.200605E-2	7.205661E-2	2.910311E-2
10/19/2017  17:26:13.059977	5.471263E-1	1.064948E-2	1.391770E-2	-1.012359E+1	4.378993E-3	2.200605E-2	8.222822E-2	4.182269E-2
10/19/2017  17:26:13.060977	2.598805E-1	1.828100E-2	2.155331E-2	-1.012614E+1	2.477858E-2	1.437409E-2	7.459952E-2	3.419094E-2
10/19/2017  17:26:13.061977	-3.425729E-1	1.573716E-2	1.191689E-3	-1.013632E+1	2.732853E-2	9.286120E-3	7.205661E-2	2.910311E-2
								
10/19/2017  17:26:13.062977	9.385939E-1	1.319332E-2	1.391770E-2	-1.013632E+1	2.987847E-2	2.709402E-2	6.697081E-2	2.401527E-2
10/19/2017  17:26:13.063977	9.767239E-1	1.573716E-2	2.155331E-2	-1.014651E+1	2.477858E-2	4.490191E-2	7.714242E-2	2.655919E-2
10/19/2017  17:26:13.064977	4.429044E-1	3.017961E-3	2.664372E-2	-1.013123E+1	1.202884E-2	2.455003E-2	7.968532E-2	3.164702E-2
10/19/2017  17:26:13.065977	3.872675E-2	1.319332E-2	1.646291E-2	-1.013887E+1	2.477858E-2	6.742135E-3	7.459952E-2	2.401527E-2
10/19/2017  17:26:13.066977	-5.230547E-1	1.573716E-2	2.155331E-2	-1.013887E+1	2.732853E-2	1.946206E-2	7.714242E-2	2.910311E-2
10/19/2017  17:26:13.067977	-4.035809E-1	1.573716E-2	1.391770E-2	-1.013378E+1	2.477858E-2	1.946206E-2	6.951371E-2	3.927877E-2
10/19/2017  17:26:13.068977	1.353227E-1	1.064948E-2	1.137250E-2	-1.015160E+1	3.242842E-2	2.709402E-2	6.697081E-2	2.147136E-2
10/19/2017  17:26:13.069977	-2.764810E-1	1.828100E-2	2.155331E-2	-1.013632E+1	2.222863E-2	2.709402E-2	7.714242E-2	2.910311E-2
10/19/2017  17:26:13.070977	1.480326E-1	1.064948E-2	1.900811E-2	-1.012359E+1	3.242842E-2	2.200605E-2	7.714242E-2	2.401527E-2
10/19/2017  17:26:13.071977	4.301944E-1	1.064948E-2	1.646291E-2	-1.014142E+1	1.967868E-2	2.200605E-2	7.968532E-2	3.164702E-2
10/19/2017  17:26:13.072977	1.607426E-1	8.105642E-3	2.155331E-2	-1.012869E+1	1.967868E-2	1.946206E-2	7.205661E-2	3.673486E-2
10/19/2017  17:26:13.073977	1.632846E-1	8.105642E-3	1.900811E-2	-1.012869E+1	2.987847E-2	2.455003E-2	6.951371E-2	3.164702E-2
10/19/2017  17:26:13.074977	-2.434350E-1	1.573716E-2	8.827299E-3	-1.013887E+1	2.987847E-2	2.200605E-2	7.205661E-2	3.673486E-2
10/19/2017  17:26:13.075977	-4.264588E-1	2.082484E-2	1.137250E-2	-1.015415E+1	2.222863E-2	2.200605E-2	7.459952E-2	2.401527E-2
10/19/2017  17:26:13.076977	1.330677E-2	1.319332E-2	1.900811E-2	-1.013632E+1	1.967868E-2	2.200605E-2	7.714242E-2	4.436661E-2
10/19/2017  17:26:13.077977	6.462642E-1	1.064948E-2	3.173413E-2	-1.012359E+1	1.457878E-2	2.455003E-2	8.222822E-2	3.164702E-2
10/19/2017  17:26:13.078977	-1.061671E-1	5.561801E-3	2.155331E-2	-1.012614E+1	1.457878E-2	1.437409E-2	8.222822E-2	4.182269E-2
10/19/2017  17:26:13.079977	4.403624E-1	1.064948E-2	2.664372E-2	-1.011596E+1	2.477858E-2	1.183011E-2	8.222822E-2	3.927877E-2
10/19/2017  17:26:13.080977	4.378204E-1	1.573716E-2	2.409852E-2	-1.013632E+1	2.732853E-2	1.946206E-2	7.205661E-2	2.910311E-2
10/19/2017  17:26:13.081977	-2.053050E-1	1.064948E-2	1.391770E-2	-1.013378E+1	2.477858E-2	2.200605E-2	5.934210E-2	3.164702E-2
10/19/2017  17:26:13.082977	-2.586870E-1	1.064948E-2	3.736893E-3	-1.013887E+1	2.477858E-2	3.218199E-2	7.205661E-2	2.655919E-2
10/19/2017  17:26:13.083977	-3.374889E-1	2.082484E-2	2.409852E-2	-1.014142E+1	2.477858E-2	2.455003E-2	9.239983E-2	2.910311E-2
10/19/2017  17:26:13.084977	-1.875110E-1	2.591253E-2	3.173413E-2	-1.013632E+1	1.712873E-2	1.946206E-2	8.222822E-2	3.164702E-2
10/19/2017  17:26:13.085977	1.531166E-1	1.573716E-2	1.646291E-2	-1.014142E+1	1.712873E-2	1.183011E-2	8.222822E-2	3.927877E-2
10/19/2017  17:26:13.086977	3.056365E-1	8.105642E-3	3.173413E-2	-1.012869E+1	1.967868E-2	2.455003E-2	6.951371E-2	3.927877E-2
10/19/2017  17:26:13.087977	2.522546E-1	1.319332E-2	1.646291E-2	-1.013632E+1	2.222863E-2	1.946206E-2	7.714242E-2	2.910311E-2
10/19/2017  17:26:13.088977	1.073607E-1	1.319332E-2	1.391770E-2	-1.013378E+1	2.477858E-2	1.183011E-2	6.951371E-2	2.910311E-2
10/19/2017  17:26:13.089977	1.022767E-1	2.591253E-2	1.391770E-2	-1.014142E+1	2.477858E-2	2.709402E-2	7.205661E-2	2.910311E-2
10/19/2017  17:26:13.090977	-1.211321E-2	2.336868E-2	2.409852E-2	-1.014142E+1	1.967868E-2	3.726996E-2	8.222822E-2	2.910311E-2
10/19/2017  17:26:13.091977	-1.945217E-3	1.828100E-2	2.155331E-2	-1.012869E+1	1.202884E-2	2.200605E-2	8.222822E-2	2.655919E-2
10/19/2017  17:26:13.092977	8.222774E-3	8.105642E-3	1.646291E-2	-1.012869E+1	2.222863E-2	4.198150E-3	7.205661E-2	2.910311E-2
10/19/2017  17:26:13.093977	-1.465521E-2	1.828100E-2	1.646291E-2	-1.013378E+1	1.457878E-2	1.946206E-2	7.459952E-2	3.419094E-2
10/19/2017  17:26:13.094977	-4.007518E-2	1.064948E-2	1.391770E-2	-1.013887E+1	2.732853E-2	1.946206E-2	6.951371E-2	3.927877E-2
								
10/19/2017  17:26:13.095977	1.251547E-1	8.105642E-3	1.900811E-2	-1.014142E+1	1.457878E-2	2.709402E-2	7.205661E-2	2.147136E-2
10/19/2017  17:26:13.096977	1.607426E-1	1.319332E-2	1.391770E-2	-1.012869E+1	2.222863E-2	2.200605E-2	8.222822E-2	3.164702E-2
10/19/2017  17:26:13.097977	-2.129310E-1	1.064948E-2	2.918892E-2	-1.013123E+1	1.967868E-2	1.946206E-2	7.968532E-2	3.673486E-2
10/19/2017  17:26:13.098977	-9.043544E-1	5.561801E-3	2.155331E-2	-1.013887E+1	2.222863E-2	1.437409E-2	7.459952E-2	2.910311E-2
10/19/2017  17:26:13.099977	-1.496640E+0	1.319332E-2	1.391770E-2	-1.014142E+1	2.477858E-2	2.200605E-2	6.188501E-2	2.910311E-2
10/19/2017  17:26:13.100977	-7.594605E-1	1.828100E-2	2.664372E-2	-1.014651E+1	1.967868E-2	2.200605E-2	7.714242E-2	2.910311E-2
10/19/2017  17:26:13.101977	7.148981E-1	2.336868E-2	1.900811E-2	-1.013887E+1	2.222863E-2	2.709402E-2	8.222822E-2	2.655919E-2
10/19/2017  17:26:13.102977	1.177542E+0	1.319332E-2	1.900811E-2	-1.014651E+1	1.712873E-2	1.946206E-2	7.714242E-2	3.164702E-2
10/19/2017  17:26:13.103977	6.284702E-1	8.105642E-3	3.173413E-2	-1.012614E+1	1.457878E-2	1.691808E-2	7.714242E-2	5.199836E-2
10/19/2017  17:26:13.104977	3.996904E-1	5.561801E-3	1.391770E-2	-1.011086E+1	2.987847E-2	1.946206E-2	6.951371E-2	4.182269E-2
10/19/2017  17:26:13.105977	5.496683E-1	1.573716E-2	8.827299E-3	-1.013887E+1	2.477858E-2	1.946206E-2	6.951371E-2	3.164702E-2
10/19/2017  17:26:13.106977	1.226127E-1	1.573716E-2	1.900811E-2	-1.015160E+1	2.222863E-2	1.946206E-2	7.968532E-2	2.401527E-2
10/19/2017  17:26:13.107977	2.141246E-1	1.828100E-2	2.918892E-2	-1.014142E+1	1.712873E-2	2.963800E-2	7.968532E-2	2.910311E-2
10/19/2017  17:26:13.108977	3.234305E-1	1.064948E-2	2.664372E-2	-1.013632E+1	1.202884E-2	2.963800E-2	8.731403E-2	3.927877E-2
10/19/2017  17:26:13.109977	5.852563E-1	-2.069720E-3	8.827299E-3	-1.012869E+1	1.712873E-2	1.183011E-2	7.459952E-2	3.673486E-2
10/19/2017  17:26:13.110977	1.836206E-1	1.319332E-2	1.646291E-2	-1.013378E+1	2.222863E-2	2.455003E-2	7.459952E-2	2.910311E-2
10/19/2017  17:26:13.111977	1.480326E-1	1.828100E-2	1.137250E-2	-1.013632E+1	1.967868E-2	2.200605E-2	6.951371E-2	2.910311E-2
10/19/2017  17:26:13.112977	2.141246E-1	1.828100E-2	1.646291E-2	-1.014651E+1	2.477858E-2	2.709402E-2	6.188501E-2	2.401527E-2
10/19/2017  17:26:13.113977	1.709106E-1	1.828100E-2	8.827299E-3	-1.013123E+1	1.457878E-2	2.709402E-2	7.714242E-2	3.419094E-2
10/19/2017  17:26:13.114977	-2.663130E-1	4.741205E-4	2.409852E-2	-1.012869E+1	1.712873E-2	9.286120E-3	7.968532E-2	3.673486E-2
10/19/2017  17:26:13.115977	1.124447E-1	1.064948E-2	1.646291E-2	-1.013123E+1	1.712873E-2	6.742135E-3	7.459952E-2	4.182269E-2
10/19/2017  17:26:13.116977	4.734084E-1	8.105642E-3	1.391770E-2	-1.013632E+1	2.477858E-2	2.455003E-2	7.205661E-2	3.164702E-2
10/19/2017  17:26:13.117977	1.429487E-1	1.064948E-2	1.900811E-2	-1.013123E+1	2.732853E-2	1.437409E-2	7.714242E-2	2.910311E-2
10/19/2017  17:26:13.118977	-2.764810E-1	3.100021E-2	1.900811E-2	-1.014396E+1	2.732853E-2	2.709402E-2	7.968532E-2	2.401527E-2
10/19/2017  17:26:13.119977	1.658266E-1	2.082484E-2	1.900811E-2	-1.013632E+1	2.222863E-2	1.691808E-2	7.714242E-2	2.655919E-2
10/19/2017  17:26:13.120977	2.471706E-1	1.828100E-2	1.646291E-2	-1.014651E+1	1.967868E-2	1.946206E-2	7.968532E-2	3.164702E-2
10/19/2017  17:26:13.121977	3.361405E-1	8.105642E-3	1.900811E-2	-1.012614E+1	2.477858E-2	1.691808E-2	7.459952E-2	3.927877E-2
10/19/2017  17:26:13.122977	3.463085E-1	8.105642E-3	1.137250E-2	-1.012359E+1	1.712873E-2	1.183011E-2	6.697081E-2	3.164702E-2
10/19/2017  17:26:13.123977	-1.722591E-1	1.573716E-2	8.827299E-3	-1.013378E+1	2.732853E-2	3.218199E-2	7.205661E-2	2.655919E-2
10/19/2017  17:26:13.124977	-7.950485E-1	2.082484E-2	1.900811E-2	-1.014142E+1	3.242842E-2	2.455003E-2	8.222822E-2	3.164702E-2
10/19/2017  17:26:13.125977	-6.120247E-1	1.064948E-2	2.664372E-2	-1.013887E+1	1.967868E-2	2.200605E-2	7.459952E-2	2.910311E-2
10/19/2017  17:26:13.126977	-8.837314E-2	8.105642E-3	2.409852E-2	-1.013887E+1	1.457878E-2	1.946206E-2	7.205661E-2	2.401527E-2
10/19/2017  17:26:13.127977	-9.345713E-2	1.064948E-2	1.900811E-2	-1.012869E+1	1.967868E-2	1.946206E-2	7.968532E-2	3.927877E-2
								
10/19/2017  17:26:13.128977	3.869804E-1	1.064948E-2	1.137250E-2	-1.013123E+1	2.732853E-2	1.437409E-2	7.714242E-2	2.147136E-2
10/19/2017  17:26:13.129977	4.429044E-1	1.573716E-2	1.137250E-2	-1.014905E+1	1.967868E-2	1.946206E-2	6.697081E-2	3.164702E-2
10/19/2017  17:26:13.130977	4.022324E-1	1.573716E-2	2.155331E-2	-1.013887E+1	2.222863E-2	2.963800E-2	7.459952E-2	4.436661E-2
10/19/2017  17:26:13.131977	8.194071E-2	1.319332E-2	2.664372E-2	-1.011086E+1	1.712873E-2	2.963800E-2	8.477112E-2	2.910311E-2
10/19/2017  17:26:13.132977	1.302387E-1	8.105642E-3	2.918892E-2	-1.012869E+1	1.712873E-2	1.183011E-2	7.459952E-2	3.673486E-2
10/19/2017  17:26:13.133977	-3.374889E-1	1.319332E-2	1.900811E-2	-1.014905E+1	2.222863E-2	1.691808E-2	6.442791E-2	3.164702E-2
10/19/2017  17:26:13.134977	-2.129310E-1	1.319332E-2	1.391770E-2	-1.013123E+1	2.477858E-2	2.455003E-2	7.714242E-2	3.164702E-2
10/19/2017  17:26:13.135977	5.572943E-1	2.082484E-2	1.900811E-2	-1.014142E+1	2.222863E-2	2.963800E-2	7.714242E-2	2.401527E-2
10/19/2017  17:26:13.136977	9.210870E-2	2.336868E-2	2.918892E-2	-1.014651E+1	9.478889E-3	2.709402E-2	7.459952E-2	3.164702E-2
10/19/2017  17:26:13.137977	-2.482320E-2	2.082484E-2	2.664372E-2	-1.013632E+1	1.967868E-2	1.946206E-2	9.239983E-2	3.164702E-2
10/19/2017  17:26:13.138977	-6.221927E-1	1.064948E-2	1.646291E-2	-1.013378E+1	2.477858E-2	1.437409E-2	7.459952E-2	3.673486E-2
10/19/2017  17:26:13.139977	-8.074715E-2	3.017961E-3	1.646291E-2	-1.012869E+1	2.477858E-2	1.183011E-2	5.679920E-2	3.164702E-2
10/19/2017  17:26:13.140977	-3.196949E-1	1.319332E-2	3.736893E-3	-1.013632E+1	1.457878E-2	1.437409E-2	7.459952E-2	2.655919E-2
10/19/2017  17:26:13.141977	1.836206E-1	3.100021E-2	1.900811E-2	-1.014142E+1	2.987847E-2	2.455003E-2	7.459952E-2	2.401527E-2
10/19/2017  17:26:13.142977	3.996904E-1	1.064948E-2	1.900811E-2	-1.013632E+1	2.987847E-2	4.235793E-2	8.222822E-2	2.910311E-2
10/19/2017  17:26:13.143977	1.658266E-1	4.741205E-4	2.409852E-2	-1.013887E+1	1.457878E-2	1.437409E-2	8.222822E-2	3.927877E-2
10/19/2017  17:26:13.144977	3.615605E-1	5.561801E-3	2.155331E-2	-1.012105E+1	2.477858E-2	2.963800E-2	7.459952E-2	4.182269E-2
10/19/2017  17:26:13.145977	3.513925E-1	1.573716E-2	1.137250E-2	-1.012869E+1	2.477858E-2	1.437409E-2	6.697081E-2	3.673486E-2
10/19/2017  17:26:13.146977	2.903845E-1	1.064948E-2	1.137250E-2	-1.013632E+1	2.732853E-2	9.286120E-3	6.951371E-2	2.655919E-2
10/19/2017  17:26:13.147977	2.093276E-2	3.354405E-2	1.391770E-2	-1.015160E+1	2.222863E-2	2.455003E-2	6.951371E-2	2.910311E-2
10/19/2017  17:26:13.148977	-3.069849E-1	2.082484E-2	2.155331E-2	-1.013123E+1	1.457878E-2	2.709402E-2	7.459952E-2	2.401527E-2
10/19/2017  17:26:13.149977	8.956670E-2	1.319332E-2	2.155331E-2	-1.013632E+1	9.478889E-3	2.200605E-2	7.968532E-2	2.655919E-2
10/19/2017  17:26:13.150977	6.183022E-1	1.064948E-2	2.155331E-2	-1.012614E+1	1.967868E-2	1.946206E-2	7.714242E-2	3.164702E-2
10/19/2017  17:26:13.151977	5.395003E-1	8.105642E-3	1.900811E-2	-1.012614E+1	2.222863E-2	1.691808E-2	7.459952E-2	3.419094E-2
10/19/2017  17:26:13.152977	-6.041116E-2	1.319332E-2	1.391770E-2	-1.013123E+1	2.732853E-2	1.946206E-2	6.697081E-2	2.910311E-2
10/19/2017  17:26:13.153977	-4.696728E-1	1.573716E-2	1.137250E-2	-1.014142E+1	1.712873E-2	2.709402E-2	7.205661E-2	2.910311E-2
10/19/2017  17:26:13.154977	-3.044429E-1	1.828100E-2	1.137250E-2	-1.013378E+1	1.457878E-2	2.455003E-2	7.459952E-2	2.401527E-2
10/19/2017  17:26:13.155977	-2.942750E-1	1.573716E-2	2.155331E-2	-1.013887E+1	1.712873E-2	1.946206E-2	8.985693E-2	3.164702E-2
10/19/2017  17:26:13.156977	-1.465521E-2	1.319332E-2	1.137250E-2	-1.013123E+1	2.477858E-2	2.455003E-2	7.205661E-2	3.164702E-2
10/19/2017  17:26:13.157977	3.107205E-1	1.319332E-2	1.391770E-2	-1.012869E+1	2.222863E-2	1.946206E-2	7.459952E-2	4.182269E-2
10/19/2017  17:26:13.158977	2.293766E-1	1.573716E-2	1.391770E-2	-1.012359E+1	2.732853E-2	2.455003E-2	7.714242E-2	2.401527E-2
10/19/2017  17:26:13.159977	1.073607E-1	1.828100E-2	1.646291E-2	-1.013887E+1	1.712873E-2	2.709402E-2	7.459952E-2	2.147136E-2
10/19/2017  17:26:13.160977	1.839076E-2	2.082484E-2	2.664372E-2	-1.014396E+1	1.712873E-2	2.455003E-2	7.968532E-2	3.164702E-2
								
10/19/2017  17:26:13.161977	5.397873E-2	1.064948E-2	3.173413E-2	-1.013632E+1	1.712873E-2	2.709402E-2	8.222822E-2	3.419094E-2
10/19/2017  17:26:13.162977	-5.024317E-2	5.561801E-3	1.646291E-2	-1.012614E+1	1.967868E-2	1.691808E-2	6.951371E-2	3.927877E-2
10/19/2017  17:26:13.163977	3.618475E-2	8.105642E-3	8.827299E-3	-1.013632E+1	2.477858E-2	1.946206E-2	7.714242E-2	3.164702E-2
10/19/2017  17:26:13.164977	5.397873E-2	1.319332E-2	1.391770E-2	-1.014142E+1	3.242842E-2	1.946206E-2	6.697081E-2	2.401527E-2
10/19/2017  17:26:13.165977	3.364275E-2	2.591253E-2	3.173413E-2	-1.013887E+1	2.987847E-2	2.963800E-2	7.459952E-2	2.910311E-2
10/19/2017  17:26:13.166977	-3.753318E-2	8.105642E-3	1.900811E-2	-1.014396E+1	2.222863E-2	1.691808E-2	7.459952E-2	2.910311E-2
10/19/2017  17:26:13.167977	-1.392131E-1	1.573716E-2	1.137250E-2	-1.013632E+1	4.378993E-3	9.286120E-3	8.222822E-2	2.655919E-2
10/19/2017  17:26:13.168977	-1.671751E-1	1.319332E-2	2.409852E-2	-1.012614E+1	1.712873E-2	1.437409E-2	7.968532E-2	3.673486E-2
10/19/2017  17:26:13.169977	3.386825E-1	5.561801E-3	2.155331E-2	-1.012359E+1	2.987847E-2	2.200605E-2	7.714242E-2	3.927877E-2
10/19/2017  17:26:13.170977	5.143673E-2	8.105642E-3	1.137250E-2	-1.013378E+1	2.732853E-2	2.455003E-2	6.951371E-2	2.655919E-2
10/19/2017  17:26:13.171977	-5.024317E-2	1.828100E-2	2.155331E-2	-1.013378E+1	2.477858E-2	9.286120E-3	7.205661E-2	2.401527E-2
10/19/2017  17:26:13.172977	5.572943E-1	3.863173E-2	2.409852E-2	-1.013632E+1	1.202884E-2	2.709402E-2	7.968532E-2	2.655919E-2
10/19/2017  17:26:13.173977	2.395446E-1	1.828100E-2	2.409852E-2	-1.014396E+1	1.712873E-2	1.946206E-2	7.968532E-2	3.164702E-2
10/19/2017  17:26:13.174977	-3.807029E-1	8.105642E-3	1.900811E-2	-1.014142E+1	2.222863E-2	2.200605E-2	7.459952E-2	4.182269E-2
10/19/2017  17:26:13.175977	-5.916887E-1	1.064948E-2	1.900811E-2	-1.013123E+1	2.477858E-2	1.946206E-2	7.714242E-2	3.419094E-2
10/19/2017  17:26:13.176977	-3.146109E-1	1.828100E-2	1.137250E-2	-1.012869E+1	3.497837E-2	1.946206E-2	6.951371E-2	2.910311E-2
10/19/2017  17:26:13.177977	2.115826E-1	1.828100E-2	8.827299E-3	-1.013887E+1	2.732853E-2	2.455003E-2	6.697081E-2	2.655919E-2
10/19/2017  17:26:13.178977	6.411802E-1	1.828100E-2	2.664372E-2	-1.013632E+1	2.222863E-2	2.709402E-2	7.714242E-2	2.910311E-2
10/19/2017  17:26:13.179977	2.064986E-1	1.064948E-2	3.173413E-2	-1.013887E+1	1.457878E-2	2.200605E-2	7.968532E-2	3.419094E-2
10/19/2017  17:26:13.180977	-3.349469E-1	8.105642E-3	2.409852E-2	-1.013378E+1	1.457878E-2	1.946206E-2	8.731403E-2	3.419094E-2
10/19/2017  17:26:13.181977	-4.366268E-1	1.064948E-2	1.137250E-2	-1.013632E+1	2.477858E-2	1.437409E-2	7.714242E-2	3.673486E-2
10/19/2017  17:26:13.182977	4.378204E-1	1.573716E-2	1.137250E-2	-1.013378E+1	2.987847E-2	1.946206E-2	7.968532E-2	4.182269E-2
10/19/2017  17:26:13.183977	2.497126E-1	1.319332E-2	1.137250E-2	-1.012105E+1	2.222863E-2	2.455003E-2	7.205661E-2	3.164702E-2
10/19/2017  17:26:13.184977	-2.482320E-2	1.573716E-2	1.646291E-2	-1.013887E+1	2.477858E-2	2.455003E-2	7.459952E-2	1.892744E-2
10/19/2017  17:26:13.185977	-2.841070E-1	1.573716E-2	2.918892E-2	-1.012614E+1	1.712873E-2	2.455003E-2	8.222822E-2	3.673486E-2
10/19/2017  17:26:13.186977	7.177272E-2	3.017961E-3	2.664372E-2	-1.013123E+1	1.967868E-2	1.437409E-2	8.477112E-2	2.655919E-2
10/19/2017  17:26:13.187977	1.200707E-1	8.105642E-3	1.900811E-2	-1.014142E+1	2.477858E-2	1.183011E-2	7.205661E-2	4.182269E-2
10/19/2017  17:26:13.188977	3.895224E-1	1.573716E-2	1.900811E-2	-1.013632E+1	2.987847E-2	2.455003E-2	6.697081E-2	2.910311E-2
10/19/2017  17:26:13.189977	2.598805E-1	1.573716E-2	1.900811E-2	-1.013378E+1	2.222863E-2	2.455003E-2	6.697081E-2	3.419094E-2
10/19/2017  17:26:13.190977	1.175287E-1	2.591253E-2	6.282096E-3	-1.014651E+1	1.967868E-2	1.946206E-2	7.205661E-2	3.164702E-2
10/19/2017  17:26:13.191977	-1.465521E-2	1.573716E-2	2.664372E-2	-1.013123E+1	1.967868E-2	1.946206E-2	8.222822E-2	3.164702E-2
10/19/2017  17:26:13.192977	-2.256410E-1	8.105642E-3	3.173413E-2	-1.013378E+1	1.712873E-2	1.946206E-2	8.222822E-2	3.673486E-2
10/19/2017  17:26:13.193977	-1.646331E-1	5.561801E-3	2.155331E-2	-1.013123E+1	2.987847E-2	1.691808E-2	7.459952E-2	3.673486E-2
								
10/19/2017  17:26:13.194977	-2.841070E-1	1.573716E-2	8.827299E-3	-1.014142E+1	2.477858E-2	2.455003E-2	6.951371E-2	2.910311E-2
10/19/2017  17:26:13.195977	3.717284E-1	2.336868E-2	1.137250E-2	-1.013378E+1	2.987847E-2	2.455003E-2	6.951371E-2	2.147136E-2
10/19/2017  17:26:13.196977	4.149424E-1	1.573716E-2	1.900811E-2	-1.014142E+1	1.967868E-2	1.437409E-2	7.459952E-2	2.655919E-2
10/19/2017  17:26:13.197977	1.042816E+0	5.561801E-3	2.664372E-2	-1.013887E+1	1.457878E-2	1.946206E-2	7.968532E-2	3.164702E-2
10/19/2017  17:26:13.198977	1.276967E-1	5.561801E-3	1.900811E-2	-1.013378E+1	2.477858E-2	2.963800E-2	7.459952E-2	3.927877E-2
10/19/2017  17:26:13.199977	-4.770118E-2	2.591253E-2	1.137250E-2	-1.013632E+1	2.987847E-2	1.437409E-2	6.951371E-2	2.655919E-2
10/19/2017  17:26:13.200977	-7.029213E-3	1.319332E-2	1.137250E-2	-1.013887E+1	2.987847E-2	1.946206E-2	6.951371E-2	1.638352E-2
10/19/2017  17:26:13.201977	-8.074715E-2	1.064948E-2	1.900811E-2	-1.015160E+1	1.202884E-2	2.709402E-2	8.731403E-2	2.147136E-2
10/19/2017  17:26:13.202977	1.076477E-2	1.064948E-2	2.664372E-2	-1.013632E+1	1.712873E-2	2.200605E-2	7.714242E-2	3.419094E-2
10/19/2017  17:26:13.203977	1.276967E-1	4.741205E-4	2.155331E-2	-1.013123E+1	1.712873E-2	1.691808E-2	8.477112E-2	3.673486E-2
10/19/2017  17:26:13.204977	6.208442E-1	1.064948E-2	1.391770E-2	-1.013887E+1	1.967868E-2	1.437409E-2	7.205661E-2	4.182269E-2
10/19/2017  17:26:13.205977	2.929265E-1	1.319332E-2	2.155331E-2	-1.013378E+1	2.732853E-2	2.200605E-2	8.222822E-2	3.927877E-2
10/19/2017  17:26:13.206977	7.431471E-2	1.828100E-2	2.409852E-2	-1.013887E+1	1.712873E-2	2.963800E-2	7.205661E-2	3.164702E-2
10/19/2017  17:26:13.207977	-2.027630E-1	1.319332E-2	2.409852E-2	-1.014142E+1	4.378993E-3	2.200605E-2	7.714242E-2	1.892744E-2
10/19/2017  17:26:13.208977	3.364275E-2	1.319332E-2	1.900811E-2	-1.012105E+1	1.457878E-2	1.946206E-2	8.222822E-2	3.673486E-2
10/19/2017  17:26:13.209977	2.090406E-1	1.064948E-2	2.155331E-2	-1.012869E+1	2.987847E-2	1.691808E-2	7.968532E-2	5.199836E-2
10/19/2017  17:26:13.210977	-1.973920E-2	1.319332E-2	6.282096E-3	-1.013887E+1	2.732853E-2	1.946206E-2	6.951371E-2	2.910311E-2
10/19/2017  17:26:13.211977	-4.595048E-1	1.064948E-2	2.155331E-2	-1.013887E+1	2.222863E-2	2.455003E-2	6.951371E-2	3.673486E-2
10/19/2017  17:26:13.212977	-2.154730E-1	1.828100E-2	3.173413E-2	-1.012614E+1	1.457878E-2	2.963800E-2	7.459952E-2	2.655919E-2
10/19/2017  17:26:13.213977	-3.298629E-1	1.064948E-2	1.900811E-2	-1.013887E+1	1.712873E-2	1.946206E-2	8.477112E-2	2.147136E-2
10/19/2017  17:26:13.214977	3.208885E-1	1.319332E-2	2.664372E-2	-1.014905E+1	1.457878E-2	1.183011E-2	7.459952E-2	3.164702E-2
10/19/2017  17:26:13.215977	2.954685E-1	8.105642E-3	2.664372E-2	-1.012614E+1	2.477858E-2	2.200605E-2	7.459952E-2	3.927877E-2
10/19/2017  17:26:13.216977	3.872675E-2	1.064948E-2	2.155331E-2	-1.013887E+1	2.477858E-2	2.963800E-2	8.731403E-2	3.164702E-2
10/19/2017  17:26:13.217977	-8.636824E-1	1.828100E-2	1.391770E-2	-1.014142E+1	2.222863E-2	1.946206E-2	6.951371E-2	2.910311E-2
10/19/2017  17:26:13.218977	-1.122966E+0	2.082484E-2	1.646291E-2	-1.014651E+1	2.222863E-2	2.709402E-2	7.205661E-2	2.655919E-2
10/19/2017  17:26:13.219977	3.208885E-1	2.336868E-2	2.918892E-2	-1.014396E+1	2.477858E-2	3.472597E-2	8.222822E-2	3.164702E-2
10/19/2017  17:26:13.220977	1.502917E+0	8.105642E-3	2.409852E-2	-1.013632E+1	1.202884E-2	1.691808E-2	7.968532E-2	3.164702E-2
10/19/2017  17:26:13.221977	1.251547E-1	8.105642E-3	1.137250E-2	-1.012614E+1	1.457878E-2	1.437409E-2	7.459952E-2	3.419094E-2
10/19/2017  17:26:13.222977	-6.399866E-1	2.082484E-2	1.137250E-2	-1.013123E+1	2.732853E-2	1.946206E-2	7.205661E-2	3.164702E-2
10/19/2017  17:26:13.223977	-6.730326E-1	1.319332E-2	1.391770E-2	-1.013887E+1	2.987847E-2	3.981394E-2	6.951371E-2	3.927877E-2
10/19/2017  17:26:13.224977	3.488505E-1	5.561801E-3	1.646291E-2	-1.014142E+1	1.712873E-2	2.709402E-2	7.459952E-2	1.892744E-2
10/19/2017  17:26:13.225977	1.556586E-1	1.319332E-2	2.155331E-2	-1.013123E+1	1.712873E-2	1.946206E-2	8.222822E-2	2.655919E-2
10/19/2017  17:26:13.226977	3.310565E-1	2.336868E-2	1.900811E-2	-1.012105E+1	2.732853E-2	1.946206E-2	7.968532E-2	3.673486E-2
								
10/19/2017  17:26:13.227977	4.889474E-2	5.561801E-3	8.827299E-3	-1.013378E+1	2.987847E-2	1.691808E-2	6.951371E-2	2.401527E-2
10/19/2017  17:26:13.228977	5.242483E-1	1.319332E-2	1.137250E-2	-1.013632E+1	3.242842E-2	2.200605E-2	6.697081E-2	2.401527E-2
10/19/2017  17:26:13.229977	1.670689E+0	1.828100E-2	1.900811E-2	-1.014142E+1	2.222863E-2	2.709402E-2	7.459952E-2	2.910311E-2
10/19/2017  17:26:13.230977	1.769827E+0	-4.613560E-3	1.391770E-2	-1.012869E+1	2.732853E-2	2.200605E-2	7.968532E-2	3.164702E-2
10/19/2017  17:26:13.231977	-1.722591E-1	1.319332E-2	1.900811E-2	-1.013887E+1	1.457878E-2	1.946206E-2	7.714242E-2	3.164702E-2
10/19/2017  17:26:13.232977	-1.305990E+0	8.105642E-3	2.155331E-2	-1.013632E+1	3.752832E-2	1.437409E-2	7.968532E-2	2.910311E-2
10/19/2017  17:26:13.233977	-5.255967E-1	8.105642E-3	1.137250E-2	-1.012614E+1	2.732853E-2	1.946206E-2	6.697081E-2	4.182269E-2
10/19/2017  17:26:13.234977	4.174844E-1	2.082484E-2	1.137250E-2	-1.014396E+1	2.732853E-2	2.455003E-2	6.188501E-2	2.147136E-2
10/19/2017  17:26:13.235977	2.093276E-2	2.082484E-2	2.155331E-2	-1.013887E+1	2.222863E-2	2.963800E-2	7.968532E-2	2.655919E-2
10/19/2017  17:26:13.236977	2.319186E-1	2.336868E-2	2.155331E-2	-1.014142E+1	1.202884E-2	2.200605E-2	7.968532E-2	3.164702E-2
10/19/2017  17:26:13.237977	-1.392131E-1	1.064948E-2	2.155331E-2	-1.014905E+1	1.712873E-2	1.691808E-2	7.968532E-2	3.164702E-2
10/19/2017  17:26:13.238977	-2.841070E-1	8.105642E-3	2.155331E-2	-1.013378E+1	1.457878E-2	1.691808E-2	7.968532E-2	6.217402E-2
10/19/2017  17:26:13.239977	4.606984E-1	1.064948E-2	1.900811E-2	-1.010832E+1	2.732853E-2	2.200605E-2	7.968532E-2	4.182269E-2
10/19/2017  17:26:13.240977	4.149424E-1	1.064948E-2	6.282096E-3	-1.013632E+1	2.477858E-2	1.183011E-2	7.205661E-2	3.164702E-2
10/19/2017  17:26:13.241977	-2.764810E-1	2.336868E-2	1.137250E-2	-1.014142E+1	1.967868E-2	1.183011E-2	7.714242E-2	3.164702E-2
10/19/2017  17:26:13.242977	-8.255525E-1	2.082484E-2	2.664372E-2	-1.014142E+1	2.222863E-2	2.963800E-2	7.459952E-2	2.655919E-2
10/19/2017  17:26:13.243977	-6.501546E-1	2.336868E-2	2.409852E-2	-1.013632E+1	1.712873E-2	2.709402E-2	7.968532E-2	2.655919E-2
10/19/2017  17:26:13.244977	5.089963E-1	8.105642E-3	2.155331E-2	-1.013378E+1	1.202884E-2	1.691808E-2	8.222822E-2	3.927877E-2
10/19/2017  17:26:13.245977	6.284702E-1	1.319332E-2	1.900811E-2	-1.013123E+1	2.222863E-2	1.691808E-2	8.731403E-2	3.927877E-2
10/19/2017  17:26:13.246977	-6.041116E-2	1.573716E-2	6.282096E-3	-1.013378E+1	3.242842E-2	1.946206E-2	6.951371E-2	3.419094E-2
10/19/2017  17:26:13.247977	-1.976790E-1	5.561801E-3	1.900811E-2	-1.013887E+1	2.477858E-2	1.946206E-2	6.951371E-2	3.164702E-2
10/19/2017  17:26:13.248977	3.691864E-1	2.082484E-2	1.391770E-2	-1.013887E+1	1.457878E-2	2.963800E-2	7.459952E-2	3.673486E-2
10/19/2017  17:26:13.249977	1.124447E-1	2.082484E-2	2.664372E-2	-1.013378E+1	1.967868E-2	1.946206E-2	8.222822E-2	3.164702E-2
10/19/2017  17:26:13.250977	-7.340406E-1	1.064948E-2	2.918892E-2	-1.013378E+1	1.967868E-2	4.198150E-3	7.968532E-2	3.419094E-2
10/19/2017  17:26:13.251977	-3.044429E-1	4.741205E-4	1.900811E-2	-1.013887E+1	1.457878E-2	1.183011E-2	7.714242E-2	4.182269E-2
10/19/2017  17:26:13.252977	7.530281E-1	1.064948E-2	1.646291E-2	-1.013887E+1	2.732853E-2	3.218199E-2	6.951371E-2	3.164702E-2
10/19/2017  17:26:13.253977	1.019938E+0	2.082484E-2	2.155331E-2	-1.012869E+1	1.712873E-2	1.946206E-2	7.205661E-2	2.655919E-2
10/19/2017  17:26:13.254977	4.886603E-1	1.828100E-2	1.900811E-2	-1.014142E+1	2.222863E-2	1.437409E-2	7.714242E-2	2.910311E-2
10/19/2017  17:26:13.255977	1.683686E-1	2.336868E-2	2.664372E-2	-1.014651E+1	2.732853E-2	2.709402E-2	8.222822E-2	3.673486E-2
10/19/2017  17:26:13.256977	2.980105E-1	8.105642E-3	2.918892E-2	-1.013378E+1	1.202884E-2	1.691808E-2	7.968532E-2	4.182269E-2
10/19/2017  17:26:13.257977	2.802165E-1	1.064948E-2	1.646291E-2	-1.012869E+1	2.477858E-2	1.183011E-2	6.697081E-2	3.164702E-2
10/19/2017  17:26:13.258977	3.234305E-1	1.573716E-2	1.391770E-2	-1.014142E+1	2.477858E-2	2.200605E-2	6.951371E-2	3.419094E-2
10/19/2017  17:26:13.259977	-2.027630E-1	1.319332E-2	1.646291E-2	-1.013632E+1	3.497837E-2	2.200605E-2	7.205661E-2	3.419094E-2
								
10/19/2017  17:26:13.260977	-1.519231E-1	2.082484E-2	1.646291E-2	-1.014396E+1	1.967868E-2	2.709402E-2	7.205661E-2	2.655919E-2
10/19/2017  17:26:13.261977	-3.857869E-1	1.828100E-2	2.918892E-2	-1.014142E+1	1.712873E-2	2.963800E-2	7.968532E-2	3.164702E-2
10/19/2017  17:26:13.262977	-3.349469E-1	8.105642E-3	2.409852E-2	-1.013123E+1	1.712873E-2	1.946206E-2	8.477112E-2	3.419094E-2
10/19/2017  17:26:13.263977	-1.417551E-1	1.064948E-2	8.827299E-3	-1.012869E+1	2.222863E-2	1.183011E-2	7.205661E-2	3.927877E-2
10/19/2017  17:26:13.264977	2.929265E-1	1.319332E-2	8.827299E-3	-1.013378E+1	2.732853E-2	1.691808E-2	6.697081E-2	3.419094E-2
10/19/2017  17:26:13.265977	2.242926E-1	2.336868E-2	2.155331E-2	-1.014142E+1	2.732853E-2	2.963800E-2	7.714242E-2	3.673486E-2
10/19/2017  17:26:13.266977	1.073607E-1	1.064948E-2	1.900811E-2	-1.011850E+1	2.222863E-2	2.200605E-2	7.968532E-2	3.164702E-2
10/19/2017  17:26:13.267977	-8.837314E-2	1.573716E-2	2.155331E-2	-1.013632E+1	1.202884E-2	1.946206E-2	8.477112E-2	3.164702E-2
10/19/2017  17:26:13.268977	3.793544E-1	1.064948E-2	1.900811E-2	-1.014905E+1	2.477858E-2	1.183011E-2	7.205661E-2	3.927877E-2
10/19/2017  17:26:13.269977	1.149867E-1	8.105642E-3	1.137250E-2	-1.012614E+1	3.242842E-2	1.946206E-2	6.951371E-2	2.910311E-2
10/19/2017  17:26:13.270977	-5.278517E-2	1.064948E-2	2.155331E-2	-1.013887E+1	2.477858E-2	2.200605E-2	6.188501E-2	2.401527E-2
10/19/2017  17:26:13.271977	1.251547E-1	8.105642E-3	1.900811E-2	-1.013887E+1	1.712873E-2	3.218199E-2	7.714242E-2	2.655919E-2
10/19/2017  17:26:13.272977	5.572943E-1	1.319332E-2	1.646291E-2	-1.013378E+1	2.732853E-2	1.946206E-2	7.968532E-2	3.164702E-2
10/19/2017  17:26:13.273977	2.675065E-1	1.828100E-2	8.827299E-3	-1.013378E+1	2.222863E-2	2.455003E-2	8.222822E-2	3.164702E-2
10/19/2017  17:26:13.274977	8.194071E-2	4.741205E-4	2.155331E-2	-1.013123E+1	2.222863E-2	1.183011E-2	6.188501E-2	3.673486E-2
10/19/2017  17:26:13.275977	2.802165E-1	5.561801E-3	2.409852E-2	-1.011850E+1	3.242842E-2	9.286120E-3	6.951371E-2	3.419094E-2
10/19/2017  17:26:13.276977	6.055922E-1	2.336868E-2	1.391770E-2	-1.012869E+1	2.987847E-2	1.946206E-2	6.951371E-2	3.164702E-2
10/19/2017  17:26:13.277977	4.835763E-1	1.828100E-2	1.646291E-2	-1.014142E+1	3.497837E-2	1.946206E-2	6.951371E-2	2.401527E-2
10/19/2017  17:26:13.278977	2.855876E-2	2.082484E-2	2.664372E-2	-1.014651E+1	1.712873E-2	2.963800E-2	8.222822E-2	2.910311E-2
10/19/2017  17:26:13.279977	-5.179708E-1	1.319332E-2	2.664372E-2	-1.013632E+1	1.712873E-2	2.963800E-2	7.968532E-2	4.182269E-2
10/19/2017  17:26:13.280977	-4.010389E-1	2.082484E-2	1.900811E-2	-1.013378E+1	1.457878E-2	1.946206E-2	7.459952E-2	3.419094E-2
10/19/2017  17:26:13.281977	1.378647E-1	8.105642E-3	1.646291E-2	-1.013378E+1	2.222863E-2	3.218199E-2	7.459952E-2	2.910311E-2
10/19/2017  17:26:13.282977	2.166666E-1	3.100021E-2	1.137250E-2	-1.013632E+1	3.752832E-2	2.455003E-2	7.205661E-2	3.164702E-2
10/19/2017  17:26:13.283977	5.496683E-1	1.064948E-2	1.646291E-2	-1.014142E+1	2.732853E-2	2.200605E-2	6.951371E-2	2.147136E-2
10/19/2017  17:26:13.284977	-3.499119E-2	1.828100E-2	1.900811E-2	-1.014142E+1	1.457878E-2	2.709402E-2	7.205661E-2	2.147136E-2
10/19/2017  17:26:13.285977	-5.128868E-1	1.319332E-2	1.646291E-2	-1.012869E+1	2.477858E-2	2.200605E-2	7.714242E-2	3.164702E-2
10/19/2017  17:26:13.286977	-1.140760E+0	1.319332E-2	2.664372E-2	-1.013632E+1	1.457878E-2	1.691808E-2	8.731403E-2	3.419094E-2
10/19/2017  17:26:13.287977	-1.239611E-1	1.064948E-2	1.900811E-2	-1.013632E+1	2.222863E-2	1.437409E-2	7.459952E-2	3.419094E-2
10/19/2017  17:26:13.288977	8.470820E-1	1.573716E-2	1.137250E-2	-1.013123E+1	4.517816E-2	1.946206E-2	6.951371E-2	3.927877E-2
10/19/2017  17:26:13.289977	4.301944E-1	1.573716E-2	2.155331E-2	-1.013378E+1	2.222863E-2	2.200605E-2	7.205661E-2	2.655919E-2
10/19/2017  17:26:13.290977	5.267903E-1	1.828100E-2	2.664372E-2	-1.014142E+1	2.222863E-2	2.963800E-2	7.714242E-2	1.638352E-2
10/19/2017  17:26:13.291977	-5.103448E-1	1.319332E-2	1.900811E-2	-1.014142E+1	1.712873E-2	2.200605E-2	7.968532E-2	3.164702E-2
10/19/2017  17:26:13.292977	1.327807E-1	1.319332E-2	2.155331E-2	-1.013632E+1	2.222863E-2	2.963800E-2	7.968532E-2	5.199836E-2
								
10/19/2017  17:26:13.293977	4.505304E-1	8.105642E-3	1.900811E-2	-1.011596E+1	2.477858E-2	1.946206E-2	7.714242E-2	3.419094E-2
10/19/2017  17:26:13.294977	6.160473E-2	1.064948E-2	1.391770E-2	-1.013887E+1	2.987847E-2	2.200605E-2	6.951371E-2	2.401527E-2
10/19/2017  17:26:13.295977	-2.408930E-1	1.573716E-2	1.391770E-2	-1.012614E+1	2.477858E-2	1.437409E-2	7.459952E-2	3.164702E-2
10/19/2017  17:26:13.296977	-5.255967E-1	2.082484E-2	1.646291E-2	-1.013887E+1	2.477858E-2	2.455003E-2	7.205661E-2	2.147136E-2
10/19/2017  17:26:13.297977	-2.027630E-1	1.319332E-2	2.155331E-2	-1.014905E+1	1.457878E-2	1.691808E-2	7.459952E-2	3.419094E-2
10/19/2017  17:26:13.298977	5.852563E-1	5.561801E-3	2.664372E-2	-1.013123E+1	2.477858E-2	1.691808E-2	7.205661E-2	3.927877E-2
10/19/2017  17:26:13.299977	-3.222369E-1	1.064948E-2	1.900811E-2	-1.012359E+1	2.477858E-2	1.691808E-2	8.731403E-2	3.673486E-2
10/19/2017  17:26:13.300977	-6.295316E-2	1.828100E-2	1.137250E-2	-1.013632E+1	2.732853E-2	1.691808E-2	6.697081E-2	2.910311E-2
10/19/2017  17:26:13.301977	4.225684E-1	2.082484E-2	1.137250E-2	-1.013887E+1	2.477858E-2	2.200605E-2	6.951371E-2	2.655919E-2
10/19/2017  17:26:13.302977	2.064986E-1	2.336868E-2	2.409852E-2	-1.014396E+1	2.477858E-2	3.726996E-2	8.222822E-2	2.910311E-2
10/19/2017  17:26:13.303977	2.014146E-1	1.064948E-2	2.664372E-2	-1.013123E+1	1.457878E-2	2.200605E-2	8.222822E-2	2.910311E-2
10/19/2017  17:26:13.304977	9.210870E-2	1.064948E-2	1.391770E-2	-1.012614E+1	1.712873E-2	2.200605E-2	8.477112E-2	3.419094E-2
10/19/2017  17:26:13.305977	2.217506E-1	1.319332E-2	1.137250E-2	-1.012614E+1	2.477858E-2	1.946206E-2	7.968532E-2	2.910311E-2
10/19/2017  17:26:13.306977	2.370026E-1	1.319332E-2	1.137250E-2	-1.013632E+1	2.732853E-2	3.472597E-2	7.459952E-2	3.419094E-2
10/19/2017  17:26:13.307977	-1.824271E-1	1.064948E-2	1.900811E-2	-1.014651E+1	1.457878E-2	2.963800E-2	7.459952E-2	2.147136E-2
10/19/2017  17:26:13.308977	-1.036251E-1	2.082484E-2	2.409852E-2	-1.014396E+1	1.712873E-2	1.437409E-2	8.222822E-2	2.655919E-2
10/19/2017  17:26:13.309977	-5.891467E-1	2.082484E-2	2.664372E-2	-1.012105E+1	2.477858E-2	2.455003E-2	7.459952E-2	3.673486E-2
10/19/2017  17:26:13.310977	-6.882846E-1	3.017961E-3	1.646291E-2	-1.013123E+1	2.477858E-2	1.183011E-2	7.205661E-2	4.182269E-2
10/19/2017  17:26:13.311977	-7.442085E-1	1.064948E-2	1.391770E-2	-1.014396E+1	3.242842E-2	2.455003E-2	7.205661E-2	3.419094E-2
10/19/2017  17:26:13.312977	9.030060E-1	1.828100E-2	2.155331E-2	-1.014905E+1	1.967868E-2	2.963800E-2	7.459952E-2	2.147136E-2
10/19/2017  17:26:13.313977	1.126702E+0	-2.069720E-3	1.900811E-2	-1.013378E+1	2.732853E-2	2.963800E-2	8.222822E-2	2.655919E-2
10/19/2017  17:26:13.314977	1.759946E-1	1.319332E-2	1.391770E-2	-1.014651E+1	1.457878E-2	1.946206E-2	7.459952E-2	3.164702E-2
10/19/2017  17:26:13.315977	-4.493368E-1	1.319332E-2	1.900811E-2	-1.013123E+1	2.732853E-2	1.691808E-2	7.459952E-2	3.419094E-2
10/19/2017  17:26:13.316977	-3.603669E-1	1.828100E-2	1.900811E-2	-1.012869E+1	2.477858E-2	2.455003E-2	7.714242E-2	2.910311E-2
10/19/2017  17:26:13.317977	5.649203E-1	1.573716E-2	1.646291E-2	-1.014651E+1	2.477858E-2	1.946206E-2	7.714242E-2	2.401527E-2
10/19/2017  17:26:13.318977	3.107205E-1	1.573716E-2	2.155331E-2	-1.013887E+1	2.222863E-2	1.946206E-2	7.459952E-2	3.164702E-2
10/19/2017  17:26:13.319977	4.047744E-1	1.319332E-2	2.155331E-2	-1.013632E+1	2.477858E-2	1.946206E-2	7.968532E-2	3.164702E-2
10/19/2017  17:26:13.320977	7.148981E-1	1.064948E-2	1.900811E-2	-1.014396E+1	2.987847E-2	2.455003E-2	7.968532E-2	3.419094E-2
10/19/2017  17:26:13.321977	9.973469E-2	1.064948E-2	1.900811E-2	-1.013887E+1	1.967868E-2	2.200605E-2	7.714242E-2	4.436661E-2
10/19/2017  17:26:13.322977	-6.041116E-2	1.828100E-2	1.900811E-2	-1.013123E+1	1.967868E-2	1.691808E-2	7.459952E-2	3.164702E-2
10/19/2017  17:26:13.323977	4.126874E-2	1.064948E-2	1.900811E-2	-1.013887E+1	2.477858E-2	1.946206E-2	7.459952E-2	3.164702E-2
10/19/2017  17:26:13.324977	-1.214191E-1	1.064948E-2	1.391770E-2	-1.013378E+1	2.732853E-2	2.455003E-2	6.188501E-2	2.910311E-2
10/19/2017  17:26:13.325977	-3.883289E-1	1.828100E-2	1.646291E-2	-1.013887E+1	2.477858E-2	2.200605E-2	7.714242E-2	3.164702E-2
								
10/19/2017  17:26:13.326977	-4.007518E-2	1.573716E-2	2.155331E-2	-1.013632E+1	1.712873E-2	2.200605E-2	9.239983E-2	3.164702E-2
10/19/2017  17:26:13.327977	-1.945217E-3	8.105642E-3	1.137250E-2	-1.012869E+1	2.222863E-2	1.183011E-2	7.459952E-2	3.419094E-2
10/19/2017  17:26:13.328977	7.047301E-1	1.573716E-2	1.646291E-2	-1.014142E+1	2.732853E-2	2.455003E-2	7.459952E-2	3.164702E-2
10/19/2017  17:26:13.329977	-7.086206E-1	1.828100E-2	2.918892E-2	-1.013887E+1	2.732853E-2	2.963800E-2	7.459952E-2	3.164702E-2
10/19/2017  17:26:13.330977	-6.908266E-1	1.064948E-2	2.409852E-2	-1.014651E+1	1.457878E-2	1.946206E-2	7.714242E-2	3.164702E-2
10/19/2017  17:26:13.331977	-3.832449E-1	1.064948E-2	1.900811E-2	-1.012869E+1	1.967868E-2	1.691808E-2	7.459952E-2	3.927877E-2
10/19/2017  17:26:13.332977	1.988726E-1	2.336868E-2	1.900811E-2	-1.013378E+1	2.477858E-2	1.691808E-2	7.205661E-2	3.164702E-2
10/19/2017  17:26:13.333977	7.708221E-1	1.828100E-2	1.391770E-2	-1.012869E+1	3.752832E-2	3.218199E-2	7.714242E-2	3.673486E-2
10/19/2017  17:26:13.334977	-1.973920E-2	1.828100E-2	1.900811E-2	-1.013887E+1	1.712873E-2	2.963800E-2	7.459952E-2	3.164702E-2
10/19/2017  17:26:13.335977	1.658266E-1	1.319332E-2	1.646291E-2	-1.013887E+1	2.477858E-2	9.286120E-3	7.459952E-2	2.401527E-2
10/19/2017  17:26:13.336977	-1.646331E-1	2.336868E-2	1.137250E-2	-1.013378E+1	2.477858E-2	1.183011E-2	7.205661E-2	3.927877E-2
10/19/2017  17:26:13.337977	1.099027E-1	2.082484E-2	1.391770E-2	-1.013887E+1	2.732853E-2	2.200605E-2	6.951371E-2	2.147136E-2
10/19/2017  17:26:13.338977	3.437665E-1	5.561801E-3	2.409852E-2	-1.014396E+1	1.712873E-2	1.946206E-2	7.205661E-2	3.164702E-2
10/19/2017  17:26:13.339977	2.293766E-1	1.319332E-2	2.155331E-2	-1.012869E+1	1.457878E-2	2.200605E-2	7.459952E-2	3.419094E-2
10/19/2017  17:26:13.340977	1.734526E-1	8.105642E-3	1.646291E-2	-1.013632E+1	3.242842E-2	1.437409E-2	7.968532E-2	2.655919E-2
10/19/2017  17:26:13.341977	2.446286E-1	1.064948E-2	1.900811E-2	-1.014142E+1	2.477858E-2	1.691808E-2	7.459952E-2	2.910311E-2
10/19/2017  17:26:13.342977	3.138778E-3	2.082484E-2	1.900811E-2	-1.014142E+1	1.457878E-2	2.709402E-2	7.205661E-2	3.927877E-2
10/19/2017  17:26:13.343977	-1.468391E-1	1.319332E-2	3.173413E-2	-1.013378E+1	1.712873E-2	2.200605E-2	8.222822E-2	3.673486E-2
10/19/2017  17:26:13.344977	8.448270E-2	8.105642E-3	1.900811E-2	-1.013378E+1	9.478889E-3	9.286120E-3	7.205661E-2	3.419094E-2
10/19/2017  17:26:13.345977	9.767239E-1	1.319332E-2	1.137250E-2	-1.012869E+1	1.967868E-2	2.200605E-2	7.968532E-2	2.910311E-2
10/19/2017  17:26:13.346977	7.301501E-1	1.828100E-2	1.646291E-2	-1.013887E+1	2.987847E-2	1.946206E-2	8.222822E-2	4.182269E-2
10/19/2017  17:26:13.347977	9.030060E-1	1.573716E-2	2.409852E-2	-1.013887E+1	2.222863E-2	2.963800E-2	6.951371E-2	2.910311E-2
10/19/2017  17:26:13.348977	-2.129310E-1	1.064948E-2	2.664372E-2	-1.013378E+1	1.457878E-2	2.200605E-2	7.968532E-2	1.892744E-2
10/19/2017  17:26:13.349977	-8.153845E-1	1.319332E-2	1.900811E-2	-1.012359E+1	2.222863E-2	2.455003E-2	8.222822E-2	2.910311E-2
10/19/2017  17:26:13.350977	-1.150928E+0	2.082484E-2	1.391770E-2	-1.013887E+1	2.732853E-2	1.946206E-2	7.459952E-2	2.910311E-2
10/19/2017  17:26:13.351977	-4.900088E-1	2.082484E-2	1.900811E-2	-1.014651E+1	1.967868E-2	2.200605E-2	6.697081E-2	2.655919E-2
10/19/2017  17:26:13.352977	3.872675E-2	1.319332E-2	2.918892E-2	-1.013632E+1	1.712873E-2	2.200605E-2	8.222822E-2	3.927877E-2
10/19/2017  17:26:13.353977	3.158045E-1	1.064948E-2	1.900811E-2	-1.013378E+1	2.222863E-2	1.946206E-2	6.442791E-2	3.927877E-2
10/19/2017  17:26:13.354977	-2.713970E-1	1.319332E-2	1.191689E-3	-1.013887E+1	2.477858E-2	1.691808E-2	7.205661E-2	2.147136E-2
10/19/2017  17:26:13.355977	4.429044E-1	2.336868E-2	1.646291E-2	-1.014396E+1	2.222863E-2	2.455003E-2	8.222822E-2	2.655919E-2
10/19/2017  17:26:13.356977	5.318743E-1	1.319332E-2	3.936974E-2	-1.013632E+1	2.477858E-2	2.709402E-2	8.222822E-2	3.673486E-2
10/19/2017  17:26:13.357977	-2.434350E-1	1.828100E-2	1.900811E-2	-1.013378E+1	1.712873E-2	1.437409E-2	7.205661E-2	3.673486E-2
10/19/2017  17:26:13.358977	7.685671E-2	1.573716E-2	1.391770E-2	-1.013632E+1	1.457878E-2	1.691808E-2	7.205661E-2	3.164702E-2
								
10/19/2017  17:26:13.359977	7.555701E-1	1.064948E-2	1.900811E-2	-1.013887E+1	2.477858E-2	1.946206E-2	7.459952E-2	2.910311E-2
10/19/2017  17:26:13.360977	2.141246E-1	2.082484E-2	1.646291E-2	-1.013887E+1	2.732853E-2	1.437409E-2	7.459952E-2	3.164702E-2
10/19/2017  17:26:13.361977	-7.314986E-1	5.561801E-3	1.900811E-2	-1.014396E+1	2.477858E-2	2.200605E-2	7.714242E-2	3.164702E-2
10/19/2017  17:26:13.362977	-1.010831E-1	8.105642E-3	1.900811E-2	-1.014142E+1	2.477858E-2	2.963800E-2	7.205661E-2	3.419094E-2
10/19/2017  17:26:13.363977	4.301944E-1	2.845637E-2	1.137250E-2	-1.013632E+1	3.242842E-2	1.946206E-2	7.205661E-2	2.910311E-2
10/19/2017  17:26:13.364977	7.784481E-1	2.336868E-2	2.155331E-2	-1.014905E+1	1.457878E-2	2.455003E-2	8.222822E-2	2.401527E-2
10/19/2017  17:26:13.365977	4.912023E-1	4.741205E-4	2.409852E-2	-1.012869E+1	1.202884E-2	1.183011E-2	7.714242E-2	3.927877E-2
10/19/2017  17:26:13.366977	2.751325E-1	1.064948E-2	2.155331E-2	-1.012359E+1	2.477858E-2	1.437409E-2	7.459952E-2	3.673486E-2
10/19/2017  17:26:13.367977	3.463085E-1	1.319332E-2	1.137250E-2	-1.012614E+1	3.497837E-2	1.946206E-2	7.205661E-2	3.164702E-2
10/19/2017  17:26:13.368977	-2.561450E-1	1.064948E-2	1.391770E-2	-1.013632E+1	2.222863E-2	2.455003E-2	7.205661E-2	3.164702E-2
10/19/2017  17:26:13.369977	-2.129310E-1	1.573716E-2	1.900811E-2	-1.012869E+1	2.732853E-2	1.946206E-2	7.968532E-2	3.673486E-2
10/19/2017  17:26:13.370977	5.967806E-4	1.064948E-2	2.155331E-2	-1.013378E+1	2.222863E-2	1.437409E-2	7.459952E-2	3.673486E-2
10/19/2017  17:26:13.371977	1.839076E-2	1.573716E-2	1.900811E-2	-1.013123E+1	1.967868E-2	2.455003E-2	7.968532E-2	3.164702E-2
10/19/2017  17:26:13.372977	2.601676E-2	1.319332E-2	2.155331E-2	-1.013887E+1	1.967868E-2	1.946206E-2	7.714242E-2	2.910311E-2
10/19/2017  17:26:13.373977	5.397873E-2	1.319332E-2	1.900811E-2	-1.014396E+1	1.457878E-2	2.963800E-2	7.205661E-2	4.182269E-2
10/19/2017  17:26:13.374977	8.448270E-2	1.064948E-2	2.918892E-2	-1.013378E+1	1.457878E-2	2.200605E-2	7.968532E-2	3.927877E-2
10/19/2017  17:26:13.375977	7.428601E-1	5.561801E-3	1.900811E-2	-1.013632E+1	2.222863E-2	1.437409E-2	7.459952E-2	2.655919E-2
10/19/2017  17:26:13.376977	9.818079E-1	1.064948E-2	1.900811E-2	-1.013887E+1	2.732853E-2	1.437409E-2	7.968532E-2	3.164702E-2
10/19/2017  17:26:13.377977	7.835321E-1	1.828100E-2	1.137250E-2	-1.013378E+1	2.987847E-2	1.946206E-2	6.951371E-2	2.910311E-2
10/19/2017  17:26:13.378977	3.285145E-1	2.082484E-2	1.646291E-2	-1.015924E+1	2.222863E-2	1.946206E-2	7.714242E-2	3.164702E-2
10/19/2017  17:26:13.379977	-3.146109E-1	1.319332E-2	3.173413E-2	-1.014142E+1	1.712873E-2	2.455003E-2	8.222822E-2	3.673486E-2
10/19/2017  17:26:13.380977	-1.455968E+0	8.105642E-3	1.900811E-2	-1.013123E+1	1.967868E-2	1.691808E-2	7.205661E-2	3.927877E-2
10/19/2017  17:26:13.381977	-2.586870E-1	1.064948E-2	6.282096E-3	-1.013632E+1	2.222863E-2	9.286120E-3	6.951371E-2	2.910311E-2
10/19/2017  17:26:13.382977	-4.112068E-1	2.591253E-2	1.137250E-2	-1.013887E+1	2.732853E-2	1.946206E-2	8.731403E-2	3.164702E-2
10/19/2017  17:26:13.383977	-5.967727E-1	2.082484E-2	3.173413E-2	-1.013378E+1	2.477858E-2	3.472597E-2	7.205661E-2	2.401527E-2
10/19/2017  17:26:13.384977	-7.899645E-1	1.064948E-2	2.664372E-2	-1.013887E+1	1.202884E-2	2.455003E-2	7.968532E-2	3.164702E-2
10/19/2017  17:26:13.385977	-2.103890E-1	8.105642E-3	2.664372E-2	-1.012869E+1	1.457878E-2	1.183011E-2	7.968532E-2	3.673486E-2
10/19/2017  17:26:13.386977	6.386382E-1	1.319332E-2	1.137250E-2	-1.012869E+1	2.732853E-2	1.437409E-2	7.205661E-2	3.927877E-2
10/19/2017  17:26:13.387977	6.513482E-1	1.573716E-2	1.137250E-2	-1.014142E+1	2.732853E-2	1.946206E-2	6.697081E-2	2.401527E-2
10/19/2017  17:26:13.388977	1.454906E-1	8.105642E-3	1.646291E-2	-1.014396E+1	1.967868E-2	2.709402E-2	8.222822E-2	2.147136E-2
10/19/2017  17:26:13.389977	1.505746E-1	1.319332E-2	2.155331E-2	-1.013378E+1	1.712873E-2	2.709402E-2	7.459952E-2	2.655919E-2
10/19/2017  17:26:13.390977	-5.942307E-1	2.082484E-2	1.646291E-2	-1.012105E+1	2.987847E-2	1.691808E-2	7.459952E-2	2.910311E-2
10/19/2017  17:26:13.391977	6.160473E-2	1.064948E-2	1.137250E-2	-1.013887E+1	2.987847E-2	1.691808E-2	6.951371E-2	2.910311E-2
								
10/19/2017  17:26:13.392977	-1.290451E-1	5.561801E-3	1.900811E-2	-1.015160E+1	1.457878E-2	2.963800E-2	7.459952E-2	2.401527E-2
10/19/2017  17:26:13.393977	-8.074715E-2	1.064948E-2	2.918892E-2	-1.013632E+1	1.202884E-2	2.200605E-2	7.968532E-2	3.164702E-2
10/19/2017  17:26:13.394977	2.093276E-2	8.105642E-3	1.900811E-2	-1.012869E+1	1.457878E-2	1.946206E-2	7.459952E-2	2.910311E-2
10/19/2017  17:26:13.395977	1.073607E-1	1.573716E-2	8.827299E-3	-1.014142E+1	2.732853E-2	1.946206E-2	7.205661E-2	3.164702E-2
10/19/2017  17:26:13.396977	3.132625E-1	2.082484E-2	1.900811E-2	-1.013632E+1	3.752832E-2	2.709402E-2	7.968532E-2	2.655919E-2
10/19/2017  17:26:13.397977	1.887046E-1	1.319332E-2	2.664372E-2	-1.013632E+1	1.712873E-2	1.946206E-2	7.968532E-2	2.910311E-2
10/19/2017  17:26:13.398977	7.685671E-2	8.105642E-3	2.155331E-2	-1.013123E+1	1.457878E-2	1.691808E-2	6.951371E-2	2.910311E-2
10/19/2017  17:26:13.399977	6.923072E-2	8.105642E-3	1.137250E-2	-1.013632E+1	2.987847E-2	9.286120E-3	7.205661E-2	3.419094E-2
10/19/2017  17:26:13.400977	1.048187E-1	2.082484E-2	1.646291E-2	-1.014651E+1	2.987847E-2	2.200605E-2	6.951371E-2	3.673486E-2
10/19/2017  17:26:13.401977	1.683686E-1	2.082484E-2	1.646291E-2	-1.012359E+1	1.712873E-2	2.963800E-2	7.714242E-2	2.910311E-2
10/19/2017  17:26:13.402977	6.160473E-2	1.064948E-2	2.155331E-2	-1.013632E+1	1.457878E-2	1.691808E-2	7.714242E-2	4.182269E-2
10/19/2017  17:26:13.403977	1.632846E-1	8.105642E-3	2.155331E-2	-1.011596E+1	2.222863E-2	1.183011E-2	6.697081E-2	3.673486E-2
10/19/2017  17:26:13.404977	1.149867E-1	1.573716E-2	8.827299E-3	-1.013887E+1	2.987847E-2	1.946206E-2	6.951371E-2	1.129569E-2
10/19/2017  17:26:13.405977	-6.041116E-2	2.082484E-2	2.155331E-2	-1.016178E+1	2.477858E-2	1.946206E-2	6.951371E-2	2.401527E-2
10/19/2017  17:26:13.406977	7.177272E-2	1.064948E-2	1.137250E-2	-1.013632E+1	2.222863E-2	2.963800E-2	7.714242E-2	3.164702E-2
10/19/2017  17:26:13.407977	-4.770118E-2	1.828100E-2	2.155331E-2	-1.013378E+1	2.477858E-2	2.455003E-2	7.714242E-2	3.164702E-2
10/19/2017  17:26:13.408977	1.404067E-1	5.561801E-3	2.409852E-2	-1.013632E+1	2.477858E-2	9.286120E-3	7.459952E-2	2.910311E-2
10/19/2017  17:26:13.409977	2.675065E-1	1.064948E-2	1.137250E-2	-1.013632E+1	2.477858E-2	2.200605E-2	6.188501E-2	3.164702E-2
10/19/2017  17:26:13.410977	4.886603E-1	1.828100E-2	3.173413E-2	-1.014142E+1	2.477858E-2	3.218199E-2	7.714242E-2	2.655919E-2
10/19/2017  17:26:13.411977	6.106762E-1	8.105642E-3	1.900811E-2	-1.013378E+1	1.967868E-2	1.946206E-2	7.459952E-2	2.910311E-2
10/19/2017  17:26:13.412977	1.480326E-1	1.319332E-2	2.664372E-2	-1.013378E+1	1.967868E-2	1.946206E-2	7.205661E-2	2.655919E-2
10/19/2017  17:26:13.413977	-4.515918E-2	1.064948E-2	1.646291E-2	-1.013378E+1	2.477858E-2	1.691808E-2	7.205661E-2	3.673486E-2
10/19/2017  17:26:13.414977	-1.468391E-1	1.828100E-2	1.137250E-2	-1.014142E+1	3.497837E-2	1.437409E-2	7.459952E-2	2.401527E-2
10/19/2017  17:26:13.415977	-1.493811E-1	1.064948E-2	1.646291E-2	-1.013887E+1	1.457878E-2	2.963800E-2	7.714242E-2	2.147136E-2
10/19/2017  17:26:13.416977	-2.230990E-1	1.573716E-2	2.664372E-2	-1.013378E+1	1.712873E-2	1.946206E-2	7.968532E-2	3.164702E-2
10/19/2017  17:26:13.417977	1.988726E-1	2.845637E-2	1.646291E-2	-1.011850E+1	2.987847E-2	1.691808E-2	7.714242E-2	4.182269E-2
10/19/2017  17:26:13.418977	2.014146E-1	1.064948E-2	1.900811E-2	-1.013632E+1	2.222863E-2	1.946206E-2	7.205661E-2	2.910311E-2
10/19/2017  17:26:13.419977	4.126874E-2	4.741205E-4	1.900811E-2	-1.013887E+1	2.477858E-2	1.946206E-2	7.205661E-2	3.164702E-2
10/19/2017  17:26:13.420977	1.810786E-1	1.828100E-2	2.155331E-2	-1.013632E+1	1.967868E-2	2.963800E-2	7.714242E-2	2.910311E-2
10/19/2017  17:26:13.421977	-4.261718E-2	1.064948E-2	2.155331E-2	-1.012869E+1	2.477858E-2	1.946206E-2	8.222822E-2	2.655919E-2
10/19/2017  17:26:13.422977	-1.620911E-1	5.561801E-3	2.409852E-2	-1.013378E+1	1.457878E-2	1.946206E-2	7.714242E-2	2.910311E-2
10/19/2017  17:26:13.423977	8.702470E-2	1.064948E-2	2.155331E-2	-1.012105E+1	3.242842E-2	1.946206E-2	7.714242E-2	3.164702E-2
10/19/2017  17:26:13.424977	2.420866E-1	1.064948E-2	1.137250E-2	-1.013378E+1	2.732853E-2	1.946206E-2	6.951371E-2	3.164702E-2
								
10/19/2017  17:26:13.425977	2.446286E-1	1.573716E-2	8.827299E-3	-1.014142E+1	2.987847E-2	2.455003E-2	6.442791E-2	1.638352E-2
10/19/2017  17:26:13.426977	1.226127E-1	2.082484E-2	1.137250E-2	-1.014905E+1	2.222863E-2	2.709402E-2	8.731403E-2	2.401527E-2
10/19/2017  17:26:13.427977	5.906273E-2	1.828100E-2	2.664372E-2	-1.013632E+1	1.712873E-2	1.946206E-2	8.985693E-2	3.673486E-2
10/19/2017  17:26:13.428977	-3.654509E-1	1.319332E-2	1.391770E-2	-1.013887E+1	2.477858E-2	2.709402E-2	7.968532E-2	3.419094E-2
10/19/2017  17:26:13.429977	-5.433907E-1	1.319332E-2	2.155331E-2	-1.013632E+1	2.222863E-2	1.946206E-2	7.714242E-2	4.945444E-2
10/19/2017  17:26:13.430977	-1.900530E-1	1.573716E-2	1.391770E-2	-1.011596E+1	2.732853E-2	2.455003E-2	7.205661E-2	3.164702E-2
10/19/2017  17:26:13.431977	2.141246E-1	1.828100E-2	1.137250E-2	-1.014142E+1	1.967868E-2	2.455003E-2	7.714242E-2	2.147136E-2
10/19/2017  17:26:13.432977	7.939871E-2	1.573716E-2	2.409852E-2	-1.014905E+1	1.967868E-2	2.200605E-2	8.222822E-2	2.910311E-2
10/19/2017  17:26:13.433977	1.076477E-2	1.319332E-2	3.173413E-2	-1.013887E+1	1.457878E-2	2.200605E-2	8.222822E-2	3.164702E-2
10/19/2017  17:26:13.434977	3.364275E-2	8.105642E-3	1.646291E-2	-1.012614E+1	1.967868E-2	2.709402E-2	8.222822E-2	3.673486E-2
10/19/2017  17:26:13.435977	-9.043544E-1	5.561801E-3	1.391770E-2	-1.013887E+1	1.967868E-2	1.183011E-2	7.459952E-2	3.164702E-2
10/19/2017  17:26:13.436977	-4.722148E-1	1.828100E-2	1.137250E-2	-1.013378E+1	2.987847E-2	1.946206E-2	7.459952E-2	3.164702E-2
10/19/2017  17:26:13.437977	4.835763E-1	2.336868E-2	1.646291E-2	-1.014396E+1	2.477858E-2	2.455003E-2	7.714242E-2	2.910311E-2
10/19/2017  17:26:13.438977	1.406322E+0	1.828100E-2	2.664372E-2	-1.013632E+1	1.712873E-2	2.709402E-2	7.205661E-2	2.401527E-2
10/19/2017  17:26:13.439977	7.326921E-1	1.319332E-2	2.155331E-2	-1.013632E+1	9.478889E-3	1.946206E-2	8.477112E-2	2.655919E-2
10/19/2017  17:26:13.440977	-4.515918E-2	1.828100E-2	1.646291E-2	-1.013632E+1	1.967868E-2	1.946206E-2	7.714242E-2	3.419094E-2
10/19/2017  17:26:13.441977	-5.024317E-2	5.561801E-3	1.900811E-2	-1.013123E+1	2.987847E-2	2.455003E-2	7.714242E-2	3.927877E-2
10/19/2017  17:26:13.442977	6.160473E-2	1.064948E-2	1.137250E-2	-1.012869E+1	2.477858E-2	1.183011E-2	7.205661E-2	3.673486E-2
10/19/2017  17:26:13.443977	-1.163351E-1	1.828100E-2	1.137250E-2	-1.013632E+1	2.987847E-2	1.437409E-2	7.205661E-2	2.655919E-2
10/19/2017  17:26:13.444977	-2.103890E-1	1.828100E-2	1.646291E-2	-1.013632E+1	1.967868E-2	2.709402E-2	7.714242E-2	2.401527E-2
10/19/2017  17:26:13.445977	-6.803716E-2	1.828100E-2	1.646291E-2	-1.013887E+1	1.967868E-2	2.200605E-2	7.968532E-2	2.401527E-2
10/19/2017  17:26:13.446977	1.220756E+0	2.591253E-2	2.155331E-2	-1.014905E+1	2.477858E-2	2.455003E-2	7.968532E-2	3.673486E-2
10/19/2017  17:26:13.447977	6.386382E-1	8.105642E-3	2.664372E-2	-1.012869E+1	1.457878E-2	1.946206E-2	8.222822E-2	3.673486E-2
10/19/2017  17:26:13.448977	3.335985E-1	5.561801E-3	1.646291E-2	-1.011596E+1	1.457878E-2	1.691808E-2	7.205661E-2	3.164702E-2
10/19/2017  17:26:13.449977	1.912466E-1	1.319332E-2	1.391770E-2	-1.013887E+1	2.732853E-2	1.946206E-2	6.697081E-2	3.164702E-2
10/19/2017  17:26:13.450977	-1.315871E-1	2.082484E-2	1.391770E-2	-1.014142E+1	2.732853E-2	2.455003E-2	6.951371E-2	2.910311E-2
10/19/2017  17:26:13.451977	1.302387E-1	2.082484E-2	2.155331E-2	-1.013632E+1	1.457878E-2	2.709402E-2	7.714242E-2	2.910311E-2
10/19/2017  17:26:13.452977	-2.815650E-1	1.319332E-2	2.409852E-2	-1.014142E+1	9.478889E-3	1.946206E-2	7.968532E-2	2.147136E-2
10/19/2017  17:26:13.453977	3.110075E-2	1.319332E-2	2.155331E-2	-1.014142E+1	2.222863E-2	2.455003E-2	7.714242E-2	3.927877E-2
10/19/2017  17:26:13.454977	1.073607E-1	1.064948E-2	1.900811E-2	-1.013378E+1	2.477858E-2	1.437409E-2	7.459952E-2	4.436661E-2
10/19/2017  17:26:13.455977	6.160473E-2	1.319332E-2	8.827299E-3	-1.015415E+1	2.477858E-2	1.691808E-2	6.951371E-2	3.164702E-2
10/19/2017  17:26:13.456977	1.175287E-1	8.105642E-3	1.137250E-2	-1.014396E+1	2.732853E-2	2.963800E-2	7.205661E-2	3.927877E-2
10/19/2017  17:26:13.457977	-1.265031E-1	1.828100E-2	2.155331E-2	-1.011850E+1	1.967868E-2	3.726996E-2	8.222822E-2	2.401527E-2
								
10/19/2017  17:26:13.458977	-2.510610E-1	1.319332E-2	2.155331E-2	-1.013887E+1	2.222863E-2	1.946206E-2	7.968532E-2	2.910311E-2
10/19/2017  17:26:13.459977	-2.841070E-1	1.319332E-2	2.409852E-2	-1.015160E+1	1.457878E-2	9.286120E-3	7.459952E-2	2.910311E-2
10/19/2017  17:26:13.460977	1.635101E+0	1.064948E-2	2.409852E-2	-1.012614E+1	2.477858E-2	1.946206E-2	7.459952E-2	3.927877E-2
10/19/2017  17:26:13.461977	2.192086E-1	5.561801E-3	1.900811E-2	-1.012614E+1	2.732853E-2	1.946206E-2	6.442791E-2	3.673486E-2
10/19/2017  17:26:13.462977	-6.755746E-1	1.319332E-2	8.827299E-3	-1.013378E+1	2.987847E-2	1.946206E-2	6.951371E-2	2.401527E-2
10/19/2017  17:26:13.463977	-8.230105E-1	1.319332E-2	1.137250E-2	-1.014396E+1	2.987847E-2	2.709402E-2	9.239983E-2	2.655919E-2
10/19/2017  17:26:13.464977	1.734526E-1	2.082484E-2	1.900811E-2	-1.013887E+1	1.967868E-2	3.472597E-2	7.714242E-2	3.164702E-2
10/19/2017  17:26:13.465977	5.242483E-1	8.105642E-3	2.664372E-2	-1.013632E+1	1.457878E-2	2.200605E-2	6.697081E-2	3.164702E-2
10/19/2017  17:26:13.466977	-2.990719E-2	1.064948E-2	1.391770E-2	-1.012359E+1	1.457878E-2	9.286120E-3	7.714242E-2	3.673486E-2
10/19/2017  17:26:13.467977	-1.315871E-1	1.064948E-2	1.137250E-2	-1.012869E+1	2.987847E-2	1.437409E-2	6.697081E-2	3.164702E-2
10/19/2017  17:26:13.468977	1.480326E-1	1.064948E-2	1.137250E-2	-1.013632E+1	1.712873E-2	3.218199E-2	6.697081E-2	3.419094E-2
10/19/2017  17:26:13.469977	3.208885E-1	1.573716E-2	2.155331E-2	-1.014142E+1	2.477858E-2	2.709402E-2	7.714242E-2	2.910311E-2
10/19/2017  17:26:13.470977	6.259282E-1	1.828100E-2	1.900811E-2	-1.013378E+1	2.477858E-2	1.946206E-2	7.714242E-2	3.673486E-2
10/19/2017  17:26:13.471977	7.250661E-1	3.608789E-2	2.664372E-2	-1.013378E+1	9.478889E-3	1.946206E-2	8.222822E-2	2.910311E-2
10/19/2017  17:26:13.472977	-1.493811E-1	1.319332E-2	2.155331E-2	-1.013378E+1	1.712873E-2	4.198150E-3	7.968532E-2	2.910311E-2
10/19/2017  17:26:13.473977	-6.501546E-1	8.105642E-3	1.646291E-2	-1.013887E+1	2.477858E-2	1.437409E-2	7.205661E-2	4.436661E-2
10/19/2017  17:26:13.474977	-3.222369E-1	1.064948E-2	1.646291E-2	-1.012359E+1	2.987847E-2	1.946206E-2	7.205661E-2	3.673486E-2
10/19/2017  17:26:13.475977	1.048187E-1	1.064948E-2	1.137250E-2	-1.013123E+1	2.732853E-2	1.437409E-2	6.697081E-2	2.910311E-2
10/19/2017  17:26:13.476977	2.242926E-1	1.828100E-2	8.827299E-3	-1.014905E+1	2.987847E-2	2.455003E-2	6.697081E-2	2.655919E-2
10/19/2017  17:26:13.477977	2.166666E-1	2.082484E-2	1.900811E-2	-1.013887E+1	2.732853E-2	2.709402E-2	8.477112E-2	3.164702E-2
10/19/2017  17:26:13.478977	-1.265031E-1	1.319332E-2	2.918892E-2	-1.013887E+1	1.457878E-2	1.946206E-2	7.714242E-2	2.655919E-2
10/19/2017  17:26:13.479977	5.397873E-2	5.561801E-3	2.664372E-2	-1.013378E+1	-7.209035E-4	2.455003E-2	6.697081E-2	2.147136E-2
10/19/2017  17:26:13.480977	1.480326E-1	1.064948E-2	1.391770E-2	-1.012105E+1	2.477858E-2	1.437409E-2	7.968532E-2	3.673486E-2
10/19/2017  17:26:13.481977	3.463085E-1	1.064948E-2	1.137250E-2	-1.013123E+1	2.477858E-2	1.691808E-2	6.951371E-2	5.708619E-2
10/19/2017  17:26:13.482977	-1.719720E-2	1.064948E-2	2.155331E-2	-1.016178E+1	2.732853E-2	2.200605E-2	6.697081E-2	2.910311E-2
10/19/2017  17:26:13.483977	-9.348584E-1	1.319332E-2	1.900811E-2	-1.014396E+1	2.222863E-2	2.455003E-2	7.459952E-2	1.638352E-2
10/19/2017  17:26:13.484977	-7.874225E-1	1.828100E-2	2.155331E-2	-1.012614E+1	1.967868E-2	2.709402E-2	8.731403E-2	3.419094E-2
10/19/2017  17:26:13.485977	-9.933243E-1	2.082484E-2	1.646291E-2	-1.013887E+1	1.967868E-2	2.200605E-2	7.459952E-2	3.673486E-2
10/19/2017  17:26:13.486977	-3.247789E-1	8.105642E-3	1.900811E-2	-1.014396E+1	2.477858E-2	9.286120E-3	7.205661E-2	3.927877E-2
10/19/2017  17:26:13.487977	1.988439E+0	1.064948E-2	1.900811E-2	-1.013378E+1	2.987847E-2	2.455003E-2	7.205661E-2	3.164702E-2
10/19/2017  17:26:13.488977	9.385939E-1	1.828100E-2	1.900811E-2	-1.014142E+1	2.477858E-2	3.218199E-2	8.222822E-2	2.655919E-2
10/19/2017  17:26:13.489977	-4.391688E-1	1.828100E-2	1.137250E-2	-1.014651E+1	1.967868E-2	1.946206E-2	7.205661E-2	2.147136E-2
10/19/2017  17:26:13.490977	-2.536030E-1	1.828100E-2	2.409852E-2	-1.013632E+1	1.712873E-2	2.200605E-2	8.477112E-2	3.164702E-2
								
10/19/2017  17:26:13.491977	7.555701E-1	1.828100E-2	2.664372E-2	-1.012869E+1	1.202884E-2	1.691808E-2	8.222822E-2	3.673486E-2
10/19/2017  17:26:13.492977	8.750440E-1	1.064948E-2	1.900811E-2	-1.012869E+1	1.967868E-2	1.946206E-2	7.459952E-2	2.910311E-2
10/19/2017  17:26:13.493977	6.160473E-2	1.064948E-2	1.900811E-2	-1.013378E+1	1.967868E-2	1.183011E-2	6.697081E-2	2.655919E-2
10/19/2017  17:26:13.494977	-6.041116E-2	2.336868E-2	1.391770E-2	-1.013632E+1	3.497837E-2	2.455003E-2	6.951371E-2	2.655919E-2
10/19/2017  17:26:13.495977	4.381074E-2	1.828100E-2	1.391770E-2	-1.013887E+1	2.732853E-2	1.691808E-2	7.459952E-2	2.401527E-2
10/19/2017  17:26:13.496977	1.302387E-1	2.082484E-2	1.900811E-2	-1.014396E+1	1.712873E-2	2.200605E-2	7.459952E-2	3.419094E-2
10/19/2017  17:26:13.497977	-7.645445E-1	1.319332E-2	2.409852E-2	-1.013887E+1	1.712873E-2	3.981394E-2	8.222822E-2	2.910311E-2
10/19/2017  17:26:13.498977	-2.482320E-2	3.354405E-2	1.646291E-2	-1.013123E+1	2.222863E-2	1.946206E-2	7.714242E-2	3.419094E-2
10/19/2017  17:26:13.499977	1.988726E-1	1.319332E-2	1.646291E-2	-1.013632E+1	2.477858E-2	6.742135E-3	7.459952E-2	2.147136E-2
10/19/2017  17:26:13.500977	1.226127E-1	5.561801E-3	1.137250E-2	-1.014396E+1	2.477858E-2	1.946206E-2	7.968532E-2	3.164702E-2
10/19/2017  17:26:13.501977	4.124004E-1	2.082484E-2	1.900811E-2	-1.013887E+1	2.222863E-2	2.455003E-2	7.459952E-2	2.655919E-2
10/19/2017  17:26:13.502977	2.090406E-1	2.082484E-2	1.646291E-2	-1.013632E+1	9.478889E-3	2.709402E-2	7.205661E-2	2.147136E-2
10/19/2017  17:26:13.503977	1.836206E-1	1.319332E-2	2.155331E-2	-1.012869E+1	1.457878E-2	1.946206E-2	8.222822E-2	3.164702E-2
10/19/2017  17:26:13.504977	-2.485190E-1	1.064948E-2	1.646291E-2	-1.012869E+1	1.712873E-2	1.183011E-2	7.714242E-2	3.673486E-2
10/19/2017  17:26:13.505977	-2.764810E-1	1.573716E-2	1.646291E-2	-1.014651E+1	2.732853E-2	2.455003E-2	6.697081E-2	2.910311E-2
10/19/2017  17:26:13.506977	2.903845E-1	1.828100E-2	2.155331E-2	-1.013632E+1	9.478889E-3	2.963800E-2	6.951371E-2	2.147136E-2
10/19/2017  17:26:13.507977	3.081785E-1	1.319332E-2	2.409852E-2	-1.012869E+1	1.712873E-2	2.200605E-2	8.477112E-2	3.164702E-2
10/19/2017  17:26:13.508977	4.276524E-1	1.064948E-2	1.900811E-2	-1.012614E+1	2.477858E-2	2.200605E-2	7.714242E-2	4.945444E-2
10/19/2017  17:26:13.509977	2.115826E-1	1.319332E-2	8.827299E-3	-1.014142E+1	2.477858E-2	1.691808E-2	6.442791E-2	3.164702E-2
10/19/2017  17:26:13.510977	-4.487215E-3	8.105642E-3	2.155331E-2	-1.014142E+1	2.477858E-2	2.963800E-2	7.714242E-2	2.910311E-2
10/19/2017  17:26:13.511977	-3.753318E-2	1.319332E-2	1.900811E-2	-1.013887E+1	1.967868E-2	1.946206E-2	7.714242E-2	2.910311E-2
10/19/2017  17:26:13.512977	-5.128868E-1	1.828100E-2	1.646291E-2	-1.013632E+1	2.222863E-2	1.946206E-2	7.714242E-2	2.147136E-2
10/19/2017  17:26:13.513977	-1.305990E+0	1.064948E-2	1.391770E-2	-1.013887E+1	1.967868E-2	9.286120E-3	7.459952E-2	2.910311E-2
10/19/2017  17:26:13.514977	-6.933686E-1	2.082484E-2	1.646291E-2	-1.013632E+1	2.987847E-2	1.946206E-2	6.951371E-2	3.164702E-2
10/19/2017  17:26:13.515977	-2.663130E-1	2.082484E-2	8.827299E-3	-1.014142E+1	2.987847E-2	2.709402E-2	7.714242E-2	2.910311E-2
10/19/2017  17:26:13.516977	8.928380E-1	1.573716E-2	2.155331E-2	-1.014396E+1	1.202884E-2	2.455003E-2	8.222822E-2	3.164702E-2
10/19/2017  17:26:13.517977	5.395003E-1	1.319332E-2	2.155331E-2	-1.012614E+1	1.712873E-2	1.691808E-2	8.222822E-2	3.673486E-2
10/19/2017  17:26:13.518977	6.666002E-1	1.828100E-2	2.918892E-2	-1.012359E+1	2.987847E-2	2.200605E-2	6.697081E-2	3.927877E-2
10/19/2017  17:26:13.519977	1.236008E+0	8.105642E-3	1.137250E-2	-1.013887E+1	2.987847E-2	1.946206E-2	6.188501E-2	3.419094E-2
10/19/2017  17:26:13.520977	-6.803716E-2	2.082484E-2	8.827299E-3	-1.014142E+1	2.477858E-2	3.472597E-2	6.951371E-2	2.401527E-2
10/19/2017  17:26:13.521977	-3.654509E-1	2.845637E-2	2.918892E-2	-1.014396E+1	2.222863E-2	1.946206E-2	7.205661E-2	2.910311E-2
10/19/2017  17:26:13.522977	-5.713527E-1	1.573716E-2	3.736893E-3	-1.014142E+1	1.712873E-2	1.691808E-2	7.968532E-2	3.164702E-2
10/19/2017  17:26:13.523977	2.853005E-1	3.017961E-3	1.646291E-2	-1.013632E+1	2.222863E-2	1.691808E-2	7.459952E-2	3.927877E-2
								
10/19/2017  17:26:13.524977	1.073607E-1	1.573716E-2	1.391770E-2	-1.013378E+1	2.987847E-2	3.726996E-2	7.205661E-2	3.419094E-2
10/19/2017  17:26:13.525977	7.098141E-1	2.082484E-2	1.137250E-2	-1.013887E+1	3.752832E-2	2.455003E-2	7.205661E-2	2.401527E-2
10/19/2017  17:26:13.526977	-6.196507E-1	1.828100E-2	2.664372E-2	-1.014396E+1	1.712873E-2	2.709402E-2	8.477112E-2	2.147136E-2
10/19/2017  17:26:13.527977	9.513039E-1	2.082484E-2	2.918892E-2	-1.012869E+1	2.222863E-2	2.200605E-2	8.222822E-2	3.673486E-2
10/19/2017  17:26:13.528977	1.324978E+0	1.064948E-2	2.155331E-2	-1.013887E+1	1.967868E-2	1.691808E-2	7.459952E-2	3.164702E-2
10/19/2017  17:26:13.529977	3.844384E-1	-4.613560E-3	1.137250E-2	-1.014396E+1	2.222863E-2	2.709402E-2	6.951371E-2	2.655919E-2
10/19/2017  17:26:13.530977	-9.170644E-1	1.573716E-2	1.646291E-2	-1.013887E+1	2.222863E-2	2.709402E-2	7.459952E-2	2.401527E-2
10/19/2017  17:26:13.531977	-4.340848E-1	1.573716E-2	2.155331E-2	-1.012614E+1	3.752832E-2	2.455003E-2	7.459952E-2	2.910311E-2
10/19/2017  17:26:13.532977	-6.803716E-2	1.319332E-2	1.391770E-2	-1.013378E+1	1.967868E-2	1.691808E-2	7.714242E-2	3.419094E-2
10/19/2017  17:26:13.533977	-5.532717E-2	1.573716E-2	1.900811E-2	-1.013123E+1	1.712873E-2	2.455003E-2	6.951371E-2	3.164702E-2
10/19/2017  17:26:13.534977	-8.583114E-2	1.319332E-2	2.664372E-2	-1.014651E+1	2.477858E-2	1.946206E-2	7.714242E-2	2.655919E-2
10/19/2017  17:26:13.535977	-1.951370E-1	1.319332E-2	1.900811E-2	-1.014142E+1	2.477858E-2	2.200605E-2	7.968532E-2	2.655919E-2
10/19/2017  17:26:13.536977	-2.129310E-1	1.828100E-2	1.900811E-2	-1.014142E+1	2.477858E-2	1.946206E-2	7.968532E-2	3.419094E-2
10/19/2017  17:26:13.537977	-6.041116E-2	1.064948E-2	2.155331E-2	-1.012869E+1	2.477858E-2	1.183011E-2	7.714242E-2	5.708619E-2
10/19/2017  17:26:13.538977	3.310565E-1	1.064948E-2	2.155331E-2	-1.012105E+1	2.477858E-2	2.963800E-2	6.697081E-2	2.401527E-2
10/19/2017  17:26:13.539977	-3.753318E-2	1.573716E-2	1.900811E-2	-1.013887E+1	2.222863E-2	2.455003E-2	7.714242E-2	4.182269E-2
10/19/2017  17:26:13.540977	-7.696285E-1	2.082484E-2	2.664372E-2	-1.015924E+1	1.457878E-2	1.183011E-2	8.477112E-2	3.164702E-2
10/19/2017  17:26:13.541977	-1.945217E-3	1.064948E-2	3.427933E-2	-1.013378E+1	1.967868E-2	1.437409E-2	7.968532E-2	3.673486E-2
10/19/2017  17:26:13.542977	6.030502E-1	8.105642E-3	1.137250E-2	-1.013632E+1	2.732853E-2	2.709402E-2	6.188501E-2	2.910311E-2
10/19/2017  17:26:13.543977	1.861626E-1	1.828100E-2	3.736893E-3	-1.013632E+1	2.477858E-2	2.963800E-2	6.951371E-2	2.401527E-2
10/19/2017  17:26:13.544977	1.030106E+0	2.336868E-2	1.900811E-2	-1.014142E+1	2.477858E-2	2.963800E-2	8.477112E-2	2.910311E-2
10/19/2017  17:26:13.545977	1.658266E-1	1.828100E-2	1.391770E-2	-1.013887E+1	1.712873E-2	1.437409E-2	8.477112E-2	2.910311E-2
10/19/2017  17:26:13.546977	-4.264588E-1	1.064948E-2	1.900811E-2	-1.013123E+1	2.222863E-2	1.437409E-2	7.459952E-2	3.673486E-2
10/19/2017  17:26:13.547977	-3.244919E-2	1.573716E-2	2.664372E-2	-1.013887E+1	2.987847E-2	2.963800E-2	6.951371E-2	3.419094E-2
10/19/2017  17:26:13.548977	-5.024317E-2	1.828100E-2	1.646291E-2	-1.014396E+1	1.712873E-2	2.709402E-2	7.205661E-2	2.401527E-2
10/19/2017  17:26:13.549977	5.293323E-1	1.828100E-2	1.137250E-2	-1.014651E+1	9.478889E-3	2.455003E-2	8.222822E-2	2.655919E-2
10/19/2017  17:26:13.550977	-5.357647E-1	5.561801E-3	1.646291E-2	-1.013887E+1	1.712873E-2	2.200605E-2	7.968532E-2	3.419094E-2
10/19/2017  17:26:13.551977	-7.442085E-1	8.105642E-3	1.646291E-2	-1.012359E+1	2.222863E-2	2.455003E-2	7.714242E-2	4.436661E-2
10/19/2017  17:26:13.552977	-8.074715E-2	8.105642E-3	1.137250E-2	-1.013378E+1	2.477858E-2	2.200605E-2	6.951371E-2	2.910311E-2
10/19/2017  17:26:13.553977	4.022324E-1	1.319332E-2	1.900811E-2	-1.013887E+1	2.732853E-2	3.726996E-2	7.205661E-2	2.147136E-2
10/19/2017  17:26:13.554977	3.132625E-1	1.828100E-2	1.900811E-2	-1.013123E+1	2.987847E-2	2.709402E-2	8.477112E-2	3.164702E-2
10/19/2017  17:26:13.555977	2.319186E-1	8.105642E-3	2.664372E-2	-1.012869E+1	1.457878E-2	1.946206E-2	7.714242E-2	3.673486E-2
10/19/2017  17:26:13.556977	1.861626E-1	-4.613560E-3	1.646291E-2	-1.014142E+1	9.478889E-3	1.946206E-2	7.205661E-2	3.673486E-2
								
10/19/2017  17:26:13.557977	1.836206E-1	1.319332E-2	1.137250E-2	-1.013887E+1	1.967868E-2	2.455003E-2	7.714242E-2	3.164702E-2
10/19/2017  17:26:13.558977	1.963306E-1	8.105642E-3	1.646291E-2	-1.013632E+1	4.007827E-2	1.946206E-2	8.222822E-2	3.164702E-2
10/19/2017  17:26:13.559977	4.889474E-2	1.064948E-2	2.155331E-2	-1.014142E+1	1.712873E-2	1.691808E-2	7.714242E-2	3.164702E-2
10/19/2017  17:26:13.560977	6.668872E-2	8.105642E-3	1.646291E-2	-1.013123E+1	1.712873E-2	1.691808E-2	7.459952E-2	3.927877E-2
10/19/2017  17:26:13.561977	1.200707E-1	1.319332E-2	1.646291E-2	-1.013378E+1	2.477858E-2	2.455003E-2	6.697081E-2	2.910311E-2
10/19/2017  17:26:13.562977	6.923072E-2	2.082484E-2	1.646291E-2	-1.013887E+1	1.202884E-2	2.709402E-2	7.205661E-2	1.892744E-2
10/19/2017  17:26:13.563977	4.126874E-2	1.319332E-2	1.646291E-2	-1.013887E+1	2.222863E-2	1.946206E-2	8.477112E-2	3.164702E-2
10/19/2017  17:26:13.564977	-1.366711E-1	1.064948E-2	2.155331E-2	-1.012869E+1	2.222863E-2	1.691808E-2	7.205661E-2	5.454227E-2
10/19/2017  17:26:13.565977	1.839076E-2	1.828100E-2	1.391770E-2	-1.012359E+1	2.477858E-2	2.455003E-2	6.697081E-2	2.655919E-2
10/19/2017  17:26:13.566977	1.022767E-1	1.064948E-2	1.900811E-2	-1.014651E+1	2.222863E-2	2.709402E-2	7.459952E-2	1.892744E-2
10/19/2017  17:26:13.567977	3.590185E-1	1.573716E-2	1.646291E-2	-1.013632E+1	1.457878E-2	2.455003E-2	8.731403E-2	3.164702E-2
10/19/2017  17:26:13.568977	8.194071E-2	1.828100E-2	2.409852E-2	-1.013887E+1	2.222863E-2	2.200605E-2	7.714242E-2	3.927877E-2
10/19/2017  17:26:13.569977	-1.059416E+0	1.319332E-2	1.900811E-2	-1.015669E+1	1.967868E-2	1.183011E-2	6.951371E-2	3.164702E-2
10/19/2017  17:26:13.570977	-9.780723E-1	5.561801E-3	2.409852E-2	-1.013378E+1	2.222863E-2	1.946206E-2	7.205661E-2	3.164702E-2
10/19/2017  17:26:13.571977	-2.968170E-1	2.082484E-2	1.900811E-2	-1.013378E+1	1.967868E-2	2.709402E-2	8.731403E-2	3.164702E-2
10/19/2017  17:26:13.572977	1.279222E+0	1.828100E-2	1.900811E-2	-1.013887E+1	1.967868E-2	1.691808E-2	8.222822E-2	3.164702E-2
10/19/2017  17:26:13.573977	7.352341E-1	8.105642E-3	1.646291E-2	-1.012614E+1	1.967868E-2	1.183011E-2	6.442791E-2	3.927877E-2
10/19/2017  17:26:13.574977	-4.239168E-1	1.573716E-2	1.900811E-2	-1.013632E+1	2.987847E-2	2.709402E-2	7.205661E-2	3.164702E-2
10/19/2017  17:26:13.575977	2.268346E-1	2.082484E-2	1.900811E-2	-1.013887E+1	1.967868E-2	2.709402E-2	7.968532E-2	2.401527E-2
10/19/2017  17:26:13.576977	-2.358090E-1	1.319332E-2	1.646291E-2	-1.013887E+1	2.732853E-2	1.183011E-2	7.459952E-2	2.655919E-2
10/19/2017  17:26:13.577977	-1.544651E-1	5.561801E-3	1.646291E-2	-1.014396E+1	2.477858E-2	2.455003E-2	7.714242E-2	4.182269E-2
10/19/2017  17:26:13.578977	6.640582E-1	1.573716E-2	1.646291E-2	-1.013632E+1	2.477858E-2	1.691808E-2	7.714242E-2	3.164702E-2
10/19/2017  17:26:13.579977	8.521660E-1	5.561801E-3	2.155331E-2	-1.013123E+1	2.222863E-2	1.946206E-2	7.714242E-2	2.655919E-2
10/19/2017  17:26:13.580977	4.124004E-1	1.319332E-2	1.646291E-2	-1.013632E+1	2.732853E-2	1.946206E-2	7.968532E-2	1.892744E-2
10/19/2017  17:26:13.581977	3.056365E-1	3.100021E-2	2.155331E-2	-1.013123E+1	2.222863E-2	1.946206E-2	8.477112E-2	3.673486E-2
10/19/2017  17:26:13.582977	4.861183E-1	8.105642E-3	2.409852E-2	-1.013632E+1	1.457878E-2	1.437409E-2	7.968532E-2	3.419094E-2
10/19/2017  17:26:13.583977	5.906273E-2	8.105642E-3	1.391770E-2	-1.012359E+1	2.222863E-2	1.183011E-2	6.697081E-2	3.164702E-2
10/19/2017  17:26:13.584977	-5.713527E-1	2.082484E-2	8.827299E-3	-1.013378E+1	2.732853E-2	2.709402E-2	6.951371E-2	2.910311E-2
10/19/2017  17:26:13.585977	-3.244919E-2	2.082484E-2	2.409852E-2	-1.013887E+1	1.967868E-2	2.709402E-2	8.222822E-2	2.910311E-2
10/19/2017  17:26:13.586977	3.361405E-1	8.105642E-3	2.664372E-2	-1.013632E+1	1.457878E-2	1.691808E-2	8.222822E-2	3.673486E-2
10/19/2017  17:26:13.587977	7.403181E-1	1.064948E-2	1.137250E-2	-1.012359E+1	4.262821E-2	1.946206E-2	6.697081E-2	3.927877E-2
10/19/2017  17:26:13.588977	9.945179E-1	1.828100E-2	1.137250E-2	-1.013632E+1	2.732853E-2	2.455003E-2	7.205661E-2	2.655919E-2
10/19/2017  17:26:13.589977	3.946064E-1	1.319332E-2	1.900811E-2	-1.013632E+1	2.732853E-2	1.946206E-2	7.968532E-2	2.401527E-2
								
10/19/2017  17:26:13.590977	-6.196507E-1	8.105642E-3	1.137250E-2	-1.013632E+1	2.477858E-2	9.286120E-3	7.714242E-2	3.927877E-2
10/19/2017  17:26:13.591977	-9.119804E-1	1.828100E-2	1.646291E-2	-1.013887E+1	2.987847E-2	1.946206E-2	7.205661E-2	4.436661E-2
10/19/2017  17:26:13.592977	-6.247347E-1	2.082484E-2	3.173413E-2	-1.012869E+1	1.967868E-2	2.455003E-2	7.459952E-2	2.401527E-2
10/19/2017  17:26:13.593977	-1.239611E-1	1.064948E-2	2.155331E-2	-1.013632E+1	1.457878E-2	1.946206E-2	8.222822E-2	3.164702E-2
10/19/2017  17:26:13.594977	-9.571210E-3	1.064948E-2	1.900811E-2	-1.012614E+1	2.222863E-2	1.183011E-2	7.968532E-2	3.673486E-2
10/19/2017  17:26:13.595977	4.657824E-1	1.573716E-2	1.137250E-2	-1.013887E+1	2.987847E-2	1.691808E-2	6.951371E-2	2.147136E-2
10/19/2017  17:26:13.596977	5.776303E-1	1.828100E-2	2.155331E-2	-1.015415E+1	1.967868E-2	2.963800E-2	6.442791E-2	2.655919E-2
10/19/2017  17:26:13.597977	-1.036251E-1	4.741205E-4	2.155331E-2	-1.013632E+1	1.457878E-2	2.200605E-2	7.968532E-2	3.164702E-2
10/19/2017  17:26:13.598977	4.149424E-1	1.064948E-2	1.646291E-2	-1.013887E+1	2.222863E-2	1.946206E-2	8.731403E-2	3.164702E-2
10/19/2017  17:26:13.599977	1.070778E+0	2.082484E-2	1.646291E-2	-1.013887E+1	3.242842E-2	1.946206E-2	6.951371E-2	2.910311E-2
10/19/2017  17:26:13.600977	-3.019009E-1	1.319332E-2	1.900811E-2	-1.014396E+1	1.712873E-2	2.709402E-2	6.697081E-2	2.401527E-2
10/19/2017  17:26:13.601977	-9.246904E-1	2.082484E-2	3.173413E-2	-1.014396E+1	1.712873E-2	1.946206E-2	7.714242E-2	3.419094E-2
10/19/2017  17:26:13.602977	-1.087378E+0	1.573716E-2	1.900811E-2	-1.013632E+1	1.967868E-2	1.946206E-2	7.459952E-2	3.419094E-2
10/19/2017  17:26:13.603977	2.471706E-1	8.105642E-3	8.827299E-3	-1.013123E+1	1.967868E-2	2.455003E-2	7.459952E-2	3.419094E-2
10/19/2017  17:26:13.604977	2.497126E-1	2.082484E-2	1.391770E-2	-1.013887E+1	2.222863E-2	2.200605E-2	6.951371E-2	3.419094E-2
10/19/2017  17:26:13.605977	4.073164E-1	2.336868E-2	1.646291E-2	-1.013887E+1	2.477858E-2	4.490191E-2	7.459952E-2	3.419094E-2
10/19/2017  17:26:13.606977	1.709106E-1	1.064948E-2	2.664372E-2	-1.013123E+1	9.478889E-3	1.946206E-2	8.222822E-2	2.655919E-2
10/19/2017  17:26:13.607977	-2.586870E-1	8.105642E-3	1.646291E-2	-1.012869E+1	2.222863E-2	-8.898203E-4	7.205661E-2	2.910311E-2
10/19/2017  17:26:13.608977	-1.061671E-1	-7.157401E-3	1.137250E-2	-1.013632E+1	3.497837E-2	1.946206E-2	7.205661E-2	3.419094E-2
10/19/2017  17:26:13.609977	-1.976790E-1	2.082484E-2	1.137250E-2	-1.014142E+1	2.987847E-2	2.455003E-2	6.697081E-2	2.401527E-2
10/19/2017  17:26:13.610977	1.073320E+0	2.082484E-2	1.646291E-2	-1.014142E+1	1.202884E-2	2.709402E-2	8.222822E-2	2.147136E-2
10/19/2017  17:26:13.611977	5.750883E-1	1.319332E-2	2.664372E-2	-1.013632E+1	1.457878E-2	1.946206E-2	8.477112E-2	3.673486E-2
10/19/2017  17:26:13.612977	2.547966E-1	1.064948E-2	1.137250E-2	-1.012869E+1	1.712873E-2	1.437409E-2	6.442791E-2	3.673486E-2
10/19/2017  17:26:13.613977	6.414672E-2	1.828100E-2	1.137250E-2	-1.014142E+1	2.987847E-2	1.691808E-2	6.951371E-2	3.164702E-2
10/19/2017  17:26:13.614977	-9.571210E-3	1.064948E-2	1.900811E-2	-1.013123E+1	2.732853E-2	2.200605E-2	7.205661E-2	3.673486E-2
10/19/2017  17:26:13.615977	3.768124E-1	1.319332E-2	1.646291E-2	-1.012614E+1	2.222863E-2	2.455003E-2	8.222822E-2	3.164702E-2
10/19/2017  17:26:13.616977	6.132182E-1	1.828100E-2	1.900811E-2	-1.013123E+1	1.967868E-2	1.691808E-2	6.951371E-2	3.927877E-2
10/19/2017  17:26:13.617977	3.618475E-2	5.561801E-3	1.137250E-2	-1.014142E+1	2.477858E-2	9.286120E-3	7.205661E-2	3.927877E-2
10/19/2017  17:26:13.618977	9.210870E-2	1.573716E-2	1.137250E-2	-1.013632E+1	3.497837E-2	2.200605E-2	6.697081E-2	2.910311E-2
10/19/2017  17:26:13.619977	-2.027630E-1	1.828100E-2	1.391770E-2	-1.013632E+1	2.222863E-2	2.709402E-2	7.205661E-2	2.655919E-2
10/19/2017  17:26:13.620977	-3.959549E-1	2.336868E-2	2.664372E-2	-1.014651E+1	1.457878E-2	2.709402E-2	7.714242E-2	2.910311E-2
10/19/2017  17:26:13.621977	1.836206E-1	1.064948E-2	2.155331E-2	-1.010832E+1	1.457878E-2	1.437409E-2	7.968532E-2	4.182269E-2
10/19/2017  17:26:13.622977	2.471706E-1	5.561801E-3	2.918892E-2	-1.013123E+1	3.242842E-2	1.691808E-2	6.697081E-2	3.673486E-2
								
10/19/2017  17:26:13.623977	2.115826E-1	2.082484E-2	1.137250E-2	-1.016178E+1	2.732853E-2	1.691808E-2	6.951371E-2	2.401527E-2
10/19/2017  17:26:13.624977	3.158045E-1	1.064948E-2	6.282096E-3	-1.013887E+1	1.712873E-2	2.455003E-2	7.714242E-2	2.401527E-2
10/19/2017  17:26:13.625977	1.480326E-1	1.828100E-2	2.409852E-2	-1.012869E+1	1.967868E-2	1.946206E-2	9.239983E-2	3.164702E-2
10/19/2017  17:26:13.626977	-1.036251E-1	2.082484E-2	2.664372E-2	-1.012869E+1	2.222863E-2	1.437409E-2	7.714242E-2	3.419094E-2
10/19/2017  17:26:13.627977	-3.349469E-1	8.105642E-3	1.137250E-2	-1.012869E+1	2.732853E-2	1.437409E-2	5.934210E-2	3.164702E-2
10/19/2017  17:26:13.628977	2.166666E-1	1.064948E-2	3.173413E-2	-1.012869E+1	2.477858E-2	2.455003E-2	7.459952E-2	2.401527E-2
10/19/2017  17:26:13.629977	1.157206E+0	1.064948E-2	1.646291E-2	-1.014142E+1	2.222863E-2	2.200605E-2	7.459952E-2	2.910311E-2
10/19/2017  17:26:13.630977	1.330062E+0	1.319332E-2	2.409852E-2	-1.013887E+1	1.202884E-2	1.183011E-2	7.714242E-2	2.910311E-2
10/19/2017  17:26:13.631977	2.395446E-1	4.741205E-4	1.900811E-2	-1.013632E+1	2.477858E-2	9.286120E-3	7.205661E-2	2.910311E-2
10/19/2017  17:26:13.632977	-1.725420E+0	1.319332E-2	1.137250E-2	-1.013378E+1	2.987847E-2	3.726996E-2	6.951371E-2	3.927877E-2
10/19/2017  17:26:13.633977	-8.535144E-1	2.845637E-2	1.900811E-2	-1.013887E+1	2.222863E-2	2.963800E-2	7.459952E-2	2.147136E-2
10/19/2017  17:26:13.634977	-3.730769E-1	1.319332E-2	2.155331E-2	-1.013887E+1	1.712873E-2	9.286120E-3	8.222822E-2	2.401527E-2
10/19/2017  17:26:13.635977	-7.029213E-3	5.561801E-3	2.155331E-2	-1.012614E+1	2.477858E-2	1.183011E-2	7.968532E-2	3.927877E-2
10/19/2017  17:26:13.636977	-1.824271E-1	1.319332E-2	1.391770E-2	-1.013887E+1	2.477858E-2	2.455003E-2	7.205661E-2	3.164702E-2
10/19/2017  17:26:13.637977	-4.366268E-1	1.064948E-2	1.137250E-2	-1.014651E+1	1.967868E-2	2.963800E-2	6.951371E-2	2.910311E-2
10/19/2017  17:26:13.638977	-2.841070E-1	1.828100E-2	2.664372E-2	-1.013887E+1	1.457878E-2	2.963800E-2	8.222822E-2	2.910311E-2
10/19/2017  17:26:13.639977	2.929265E-1	1.573716E-2	2.409852E-2	-1.012105E+1	3.242842E-2	1.946206E-2	8.477112E-2	2.910311E-2
10/19/2017  17:26:13.640977	2.802165E-1	8.105642E-3	1.900811E-2	-1.013123E+1	2.477858E-2	1.437409E-2	6.951371E-2	3.673486E-2
10/19/2017  17:26:13.641977	5.750883E-1	1.573716E-2	1.391770E-2	-1.013632E+1	1.457878E-2	1.946206E-2	6.442791E-2	2.401527E-2
10/19/2017  17:26:13.642977	2.093276E-2	1.064948E-2	2.664372E-2	-1.013378E+1	2.222863E-2	2.963800E-2	7.714242E-2	2.401527E-2
10/19/2017  17:26:13.643977	-7.566315E-2	1.319332E-2	1.900811E-2	-1.013632E+1	2.222863E-2	2.455003E-2	8.477112E-2	2.401527E-2
10/19/2017  17:26:13.644977	-2.866490E-1	1.319332E-2	1.391770E-2	-1.014651E+1	2.222863E-2	1.946206E-2	7.459952E-2	2.910311E-2
10/19/2017  17:26:13.645977	-1.265031E-1	5.561801E-3	2.155331E-2	-1.013887E+1	2.222863E-2	1.946206E-2	7.205661E-2	3.673486E-2
10/19/2017  17:26:13.646977	-4.035809E-1	1.319332E-2	1.646291E-2	-1.012359E+1	2.477858E-2	2.455003E-2	7.205661E-2	3.164702E-2
10/19/2017  17:26:13.647977	3.641025E-1	1.828100E-2	1.137250E-2	-1.014396E+1	2.222863E-2	2.455003E-2	7.714242E-2	2.910311E-2
10/19/2017  17:26:13.648977	-2.228120E-2	1.828100E-2	2.409852E-2	-1.015160E+1	1.967868E-2	1.437409E-2	8.222822E-2	3.164702E-2
