Parameters: 	Upper Cutoff: : 500	Lower Cutoff: : 20	Sample Rate (HZ)1000	Frames Per Second: 30	Display Window Size (S)100	MVC Window Size (s): 100	Seconds To Acquire MVC: 3	Display Channel: 0
waveform	[0]	[1]	[2]	[3]	[4]	[5]	[6]	[7]
t0	10/19/2017  17:25:31.688790	10/19/2017  17:25:31.688790	10/19/2017  17:25:31.688790	10/19/2017  17:25:31.688790	10/19/2017  17:25:31.688790	10/19/2017  17:25:31.688790	10/19/2017  17:25:31.688790	10/19/2017  17:25:31.688790
delta t	0.001000	0.001000	0.001000	0.001000	0.001000	0.001000	0.001000	0.001000

time	Y[0]	Y[1]	Y[2]	Y[3]	Y[4]	Y[5]	Y[6]	Y[7]
10/19/2017  17:25:31.763424	6.923072E-2	1.573716E-2	1.900811E-2	-1.016433E+1	2.732853E-2	1.437409E-2	6.697081E-2	2.910311E-2
10/19/2017  17:25:31.764424	6.923072E-2	2.082484E-2	8.827299E-3	-1.013887E+1	2.477858E-2	2.963800E-2	7.205661E-2	2.401527E-2
10/19/2017  17:25:31.765424	2.093276E-2	2.082484E-2	1.900811E-2	-1.014142E+1	2.222863E-2	1.691808E-2	8.731403E-2	3.164702E-2
10/19/2017  17:25:31.766424	3.138778E-3	8.105642E-3	1.646291E-2	-1.013632E+1	1.202884E-2	1.691808E-2	8.222822E-2	2.910311E-2
10/19/2017  17:25:31.767424	6.160473E-2	1.064948E-2	2.155331E-2	-1.012614E+1	1.712873E-2	1.183011E-2	7.714242E-2	4.182269E-2
10/19/2017  17:25:31.768424	1.149867E-1	8.105642E-3	2.664372E-2	-1.013378E+1	2.222863E-2	1.946206E-2	7.459952E-2	4.182269E-2
10/19/2017  17:25:31.769424	2.855876E-2	8.105642E-3	1.137250E-2	-1.013632E+1	2.732853E-2	1.946206E-2	6.697081E-2	3.164702E-2
10/19/2017  17:25:31.770424	-7.820515E-2	2.082484E-2	1.191689E-3	-1.013887E+1	2.222863E-2	3.218199E-2	7.205661E-2	2.910311E-2
10/19/2017  17:25:31.771424	2.601676E-2	2.845637E-2	2.155331E-2	-1.014651E+1	2.477858E-2	2.963800E-2	7.968532E-2	2.910311E-2
10/19/2017  17:25:31.772424	6.668872E-2	1.573716E-2	2.155331E-2	-1.013887E+1	1.712873E-2	1.437409E-2	8.477112E-2	3.927877E-2
10/19/2017  17:25:31.773424	7.177272E-2	1.319332E-2	1.646291E-2	-1.013378E+1	1.712873E-2	1.691808E-2	7.459952E-2	3.673486E-2
10/19/2017  17:25:31.774424	2.093276E-2	1.319332E-2	1.391770E-2	-1.013123E+1	2.477858E-2	3.726996E-2	7.714242E-2	3.164702E-2
10/19/2017  17:25:31.775424	1.048187E-1	3.100021E-2	1.137250E-2	-1.013632E+1	3.752832E-2	2.455003E-2	7.459952E-2	3.673486E-2
10/19/2017  17:25:31.776424	8.702470E-2	1.828100E-2	1.646291E-2	-1.014651E+1	1.967868E-2	2.709402E-2	7.459952E-2	2.401527E-2
10/19/2017  17:25:31.777424	7.431471E-2	1.064948E-2	2.155331E-2	-1.014651E+1	1.457878E-2	1.946206E-2	8.222822E-2	3.164702E-2
10/19/2017  17:25:31.778424	2.093276E-2	8.105642E-3	2.664372E-2	-1.013887E+1	1.457878E-2	1.437409E-2	8.477112E-2	4.182269E-2
10/19/2017  17:25:31.779424	-6.803716E-2	8.105642E-3	1.646291E-2	-1.012614E+1	1.457878E-2	1.183011E-2	7.714242E-2	3.419094E-2
10/19/2017  17:25:31.780424	-1.722591E-1	1.573716E-2	1.137250E-2	-1.013632E+1	2.987847E-2	1.946206E-2	7.205661E-2	3.164702E-2
10/19/2017  17:25:31.781424	-2.536030E-1	2.336868E-2	1.137250E-2	-1.014142E+1	2.987847E-2	2.455003E-2	6.442791E-2	3.164702E-2
10/19/2017  17:25:31.782424	8.956670E-2	1.828100E-2	2.664372E-2	-1.013887E+1	2.222863E-2	2.963800E-2	7.459952E-2	2.401527E-2
10/19/2017  17:25:31.783424	1.556586E-1	1.064948E-2	2.409852E-2	-1.013378E+1	4.378993E-3	1.946206E-2	7.714242E-2	2.147136E-2
10/19/2017  17:25:31.784424	4.174844E-1	1.573716E-2	2.155331E-2	-1.014905E+1	2.222863E-2	1.946206E-2	7.714242E-2	3.927877E-2
10/19/2017  17:25:31.785424	2.115826E-1	1.319332E-2	1.900811E-2	-1.013123E+1	2.477858E-2	1.437409E-2	7.714242E-2	2.910311E-2
10/19/2017  17:25:31.786424	3.081785E-1	1.573716E-2	6.282096E-3	-1.014142E+1	3.242842E-2	1.691808E-2	7.205661E-2	3.419094E-2
10/19/2017  17:25:31.787424	1.810786E-1	2.591253E-2	1.137250E-2	-1.013123E+1	2.477858E-2	2.200605E-2	7.968532E-2	3.164702E-2
10/19/2017  17:25:31.788424	9.210870E-2	2.082484E-2	1.900811E-2	-1.011850E+1	1.967868E-2	2.963800E-2	7.968532E-2	3.673486E-2
10/19/2017  17:25:31.789424	4.126874E-2	2.845637E-2	1.900811E-2	-1.014396E+1	1.457878E-2	2.963800E-2	8.477112E-2	3.164702E-2
10/19/2017  17:25:31.790424	1.022767E-1	1.319332E-2	2.409852E-2	-1.014142E+1	1.457878E-2	9.286120E-3	7.205661E-2	3.927877E-2
10/19/2017  17:25:31.791424	1.175287E-1	1.064948E-2	2.409852E-2	-1.013378E+1	1.967868E-2	1.946206E-2	7.459952E-2	4.182269E-2
10/19/2017  17:25:31.792424	7.685671E-2	1.064948E-2	1.646291E-2	-1.013887E+1	2.477858E-2	2.963800E-2	8.731403E-2	2.910311E-2
10/19/2017  17:25:31.793424	3.618475E-2	1.319332E-2	1.137250E-2	-1.013378E+1	2.222863E-2	1.946206E-2	6.951371E-2	2.655919E-2
10/19/2017  17:25:31.794424	-3.019009E-1	1.828100E-2	1.391770E-2	-1.014396E+1	2.222863E-2	2.455003E-2	8.477112E-2	3.164702E-2
10/19/2017  17:25:31.795424	-5.205127E-1	1.828100E-2	1.900811E-2	-1.013887E+1	1.967868E-2	1.691808E-2	8.222822E-2	3.164702E-2
								
10/19/2017  17:25:31.796424	-5.408487E-1	8.105642E-3	2.155331E-2	-1.013887E+1	2.477858E-2	1.946206E-2	6.188501E-2	3.164702E-2
10/19/2017  17:25:31.797424	-1.188771E-1	8.105642E-3	1.391770E-2	-1.013632E+1	1.457878E-2	1.183011E-2	7.714242E-2	3.419094E-2
10/19/2017  17:25:31.798424	4.047744E-1	1.573716E-2	1.137250E-2	-1.013123E+1	3.242842E-2	1.691808E-2	6.951371E-2	3.164702E-2
10/19/2017  17:25:31.799424	4.301944E-1	2.082484E-2	1.391770E-2	-1.013632E+1	3.242842E-2	3.218199E-2	6.951371E-2	3.673486E-2
10/19/2017  17:25:31.800424	9.284259E-1	1.319332E-2	1.900811E-2	-1.014396E+1	1.712873E-2	2.455003E-2	7.205661E-2	2.401527E-2
10/19/2017  17:25:31.801424	7.301501E-1	1.828100E-2	2.664372E-2	-1.013887E+1	1.457878E-2	1.946206E-2	7.205661E-2	3.673486E-2
10/19/2017  17:25:31.802424	2.929265E-1	2.845637E-2	2.155331E-2	-1.013632E+1	1.457878E-2	1.946206E-2	7.205661E-2	3.164702E-2
10/19/2017  17:25:31.803424	-1.211321E-2	1.573716E-2	1.900811E-2	-1.013887E+1	2.222863E-2	2.200605E-2	7.714242E-2	3.927877E-2
10/19/2017  17:25:31.804424	-9.599913E-2	2.336868E-2	1.646291E-2	-1.014905E+1	3.497837E-2	1.946206E-2	6.951371E-2	3.673486E-2
10/19/2017  17:25:31.805424	-1.163351E-1	1.828100E-2	1.391770E-2	-1.013887E+1	2.477858E-2	2.455003E-2	6.951371E-2	3.164702E-2
10/19/2017  17:25:31.806424	-3.349469E-1	2.082484E-2	1.646291E-2	-1.013123E+1	1.967868E-2	1.946206E-2	7.205661E-2	3.419094E-2
10/19/2017  17:25:31.807424	-1.468391E-1	1.828100E-2	2.664372E-2	-1.014396E+1	1.457878E-2	2.709402E-2	8.477112E-2	3.164702E-2
10/19/2017  17:25:31.808424	3.539345E-1	1.828100E-2	2.664372E-2	-1.011596E+1	1.712873E-2	2.200605E-2	8.222822E-2	4.182269E-2
10/19/2017  17:25:31.809424	5.344163E-1	1.064948E-2	1.646291E-2	-1.012614E+1	1.967868E-2	1.437409E-2	7.459952E-2	3.673486E-2
10/19/2017  17:25:31.810424	3.691864E-1	1.828100E-2	1.391770E-2	-1.013887E+1	1.967868E-2	1.946206E-2	7.205661E-2	3.164702E-2
10/19/2017  17:25:31.811424	-5.786917E-2	1.573716E-2	1.137250E-2	-1.013123E+1	2.477858E-2	1.946206E-2	7.205661E-2	3.164702E-2
10/19/2017  17:25:31.812424	-2.383510E-1	2.082484E-2	1.646291E-2	-1.014651E+1	1.967868E-2	2.455003E-2	7.459952E-2	1.638352E-2
10/19/2017  17:25:31.813424	-1.849691E-1	1.573716E-2	1.646291E-2	-1.014142E+1	2.222863E-2	1.691808E-2	7.205661E-2	3.164702E-2
10/19/2017  17:25:31.814424	1.607426E-1	1.319332E-2	1.900811E-2	-1.013632E+1	2.222863E-2	2.709402E-2	8.477112E-2	2.655919E-2
10/19/2017  17:25:31.815424	7.939871E-2	1.064948E-2	1.900811E-2	-1.011086E+1	1.967868E-2	1.946206E-2	7.714242E-2	3.673486E-2
10/19/2017  17:25:31.816424	3.666444E-1	1.064948E-2	1.137250E-2	-1.013632E+1	2.477858E-2	1.691808E-2	7.205661E-2	3.164702E-2
10/19/2017  17:25:31.817424	4.708664E-1	2.591253E-2	1.646291E-2	-1.015669E+1	2.987847E-2	2.455003E-2	6.188501E-2	2.910311E-2
10/19/2017  17:25:31.818424	6.414672E-2	2.082484E-2	2.409852E-2	-1.014142E+1	2.222863E-2	2.963800E-2	7.714242E-2	2.401527E-2
10/19/2017  17:25:31.819424	9.973469E-2	1.319332E-2	1.900811E-2	-1.015160E+1	1.967868E-2	1.946206E-2	7.459952E-2	3.164702E-2
10/19/2017  17:25:31.820424	3.364275E-2	1.319332E-2	1.391770E-2	-1.012869E+1	1.457878E-2	1.691808E-2	8.477112E-2	3.419094E-2
10/19/2017  17:25:31.821424	2.547966E-1	1.573716E-2	1.900811E-2	-1.012614E+1	2.477858E-2	1.183011E-2	7.714242E-2	3.927877E-2
10/19/2017  17:25:31.822424	-4.007518E-2	2.082484E-2	1.900811E-2	-1.013123E+1	3.497837E-2	2.200605E-2	6.951371E-2	3.419094E-2
10/19/2017  17:25:31.823424	2.751325E-1	1.573716E-2	1.900811E-2	-1.014396E+1	1.712873E-2	2.963800E-2	6.697081E-2	2.147136E-2
10/19/2017  17:25:31.824424	-1.973920E-2	1.828100E-2	1.900811E-2	-1.013123E+1	9.478889E-3	2.455003E-2	8.222822E-2	3.164702E-2
10/19/2017  17:25:31.825424	3.618475E-2	1.064948E-2	2.664372E-2	-1.012614E+1	1.712873E-2	1.691808E-2	7.714242E-2	3.927877E-2
10/19/2017  17:25:31.826424	2.649645E-1	5.561801E-3	1.137250E-2	-1.012869E+1	2.222863E-2	2.709402E-2	7.205661E-2	2.655919E-2
10/19/2017  17:25:31.827424	4.657824E-1	3.017961E-3	1.646291E-2	-1.014142E+1	2.477858E-2	2.200605E-2	7.459952E-2	3.164702E-2
10/19/2017  17:25:31.828424	1.429487E-1	1.573716E-2	1.646291E-2	-1.014142E+1	1.967868E-2	2.200605E-2	7.714242E-2	3.419094E-2
								
10/19/2017  17:25:31.829424	-1.239611E-1	-4.613560E-3	2.409852E-2	-1.013123E+1	1.457878E-2	1.183011E-2	8.477112E-2	3.419094E-2
10/19/2017  17:25:31.830424	-4.007518E-2	8.105642E-3	1.900811E-2	-1.013378E+1	1.967868E-2	1.183011E-2	7.459952E-2	2.401527E-2
10/19/2017  17:25:31.831424	2.601676E-2	5.561801E-3	1.900811E-2	-1.014142E+1	3.242842E-2	2.200605E-2	7.459952E-2	3.419094E-2
10/19/2017  17:25:31.832424	1.632846E-1	2.082484E-2	1.900811E-2	-1.013378E+1	2.477858E-2	1.946206E-2	7.459952E-2	2.401527E-2
10/19/2017  17:25:31.833424	2.855876E-2	1.319332E-2	2.664372E-2	-1.012614E+1	1.967868E-2	9.286120E-3	8.222822E-2	3.164702E-2
10/19/2017  17:25:31.834424	-4.722148E-1	5.561801E-3	1.391770E-2	-1.013632E+1	2.222863E-2	1.691808E-2	7.714242E-2	3.927877E-2
10/19/2017  17:25:31.835424	-3.857869E-1	1.319332E-2	1.900811E-2	-1.013123E+1	1.967868E-2	1.691808E-2	7.459952E-2	3.673486E-2
10/19/2017  17:25:31.836424	1.759946E-1	2.336868E-2	1.900811E-2	-1.014396E+1	2.987847E-2	2.455003E-2	6.697081E-2	2.147136E-2
10/19/2017  17:25:31.837424	2.751325E-1	1.828100E-2	1.900811E-2	-1.013632E+1	1.457878E-2	2.963800E-2	6.697081E-2	2.401527E-2
10/19/2017  17:25:31.838424	-4.007518E-2	1.573716E-2	2.664372E-2	-1.012869E+1	1.457878E-2	2.455003E-2	8.222822E-2	3.164702E-2
10/19/2017  17:25:31.839424	4.381074E-2	1.573716E-2	1.391770E-2	-1.013123E+1	2.477858E-2	2.200605E-2	8.222822E-2	3.164702E-2
10/19/2017  17:25:31.840424	1.327807E-1	1.064948E-2	1.900811E-2	-1.013378E+1	1.967868E-2	1.183011E-2	7.205661E-2	3.927877E-2
10/19/2017  17:25:31.841424	1.302387E-1	1.064948E-2	1.137250E-2	-1.014142E+1	3.242842E-2	2.455003E-2	6.951371E-2	2.401527E-2
10/19/2017  17:25:31.842424	1.454906E-1	1.828100E-2	2.409852E-2	-1.012869E+1	2.222863E-2	3.218199E-2	8.222822E-2	2.401527E-2
10/19/2017  17:25:31.843424	1.378647E-1	1.064948E-2	2.155331E-2	-1.013632E+1	1.457878E-2	1.946206E-2	8.222822E-2	3.164702E-2
10/19/2017  17:25:31.844424	1.022767E-1	1.319332E-2	1.900811E-2	-1.015669E+1	2.477858E-2	1.946206E-2	7.968532E-2	3.673486E-2
10/19/2017  17:25:31.845424	-1.010831E-1	1.573716E-2	2.409852E-2	-1.013632E+1	1.967868E-2	1.946206E-2	7.205661E-2	3.164702E-2
10/19/2017  17:25:31.846424	-1.824271E-1	1.319332E-2	2.155331E-2	-1.013632E+1	2.222863E-2	2.455003E-2	6.697081E-2	2.655919E-2
10/19/2017  17:25:31.847424	-1.697171E-1	8.105642E-3	8.827299E-3	-1.013632E+1	1.712873E-2	2.200605E-2	7.205661E-2	3.164702E-2
10/19/2017  17:25:31.848424	-2.230990E-1	1.828100E-2	2.664372E-2	-1.013123E+1	1.712873E-2	1.946206E-2	8.477112E-2	3.164702E-2
10/19/2017  17:25:31.849424	-8.328914E-2	1.828100E-2	2.918892E-2	-1.013123E+1	2.987847E-2	1.691808E-2	7.714242E-2	3.927877E-2
10/19/2017  17:25:31.850424	5.776303E-1	8.105642E-3	1.900811E-2	-1.014142E+1	1.967868E-2	1.946206E-2	7.205661E-2	3.164702E-2
10/19/2017  17:25:31.851424	3.768124E-1	2.336868E-2	1.191689E-3	-1.013887E+1	1.712873E-2	3.218199E-2	7.205661E-2	2.655919E-2
10/19/2017  17:25:31.852424	2.624225E-1	2.591253E-2	2.409852E-2	-1.013378E+1	1.457878E-2	2.709402E-2	7.714242E-2	2.910311E-2
10/19/2017  17:25:31.853424	3.361405E-1	8.105642E-3	1.391770E-2	-1.013123E+1	2.477858E-2	9.286120E-3	8.222822E-2	3.673486E-2
10/19/2017  17:25:31.854424	2.751325E-1	1.064948E-2	1.137250E-2	-1.013887E+1	2.222863E-2	1.691808E-2	7.205661E-2	3.927877E-2
10/19/2017  17:25:31.855424	2.347476E-2	1.828100E-2	1.137250E-2	-1.013887E+1	2.987847E-2	4.490191E-2	7.205661E-2	2.910311E-2
10/19/2017  17:25:31.856424	-3.146109E-1	2.082484E-2	1.646291E-2	-1.013378E+1	1.202884E-2	2.963800E-2	7.205661E-2	2.401527E-2
10/19/2017  17:25:31.857424	-2.154730E-1	1.319332E-2	1.646291E-2	-1.013632E+1	2.222863E-2	9.286120E-3	7.459952E-2	2.401527E-2
10/19/2017  17:25:31.858424	5.967806E-4	3.017961E-3	2.155331E-2	-1.014396E+1	2.987847E-2	1.946206E-2	7.714242E-2	4.182269E-2
10/19/2017  17:25:31.859424	6.160473E-2	1.064948E-2	1.900811E-2	-1.012614E+1	2.732853E-2	1.691808E-2	6.951371E-2	3.673486E-2
10/19/2017  17:25:31.860424	-4.515918E-2	1.064948E-2	1.137250E-2	-1.015415E+1	1.967868E-2	2.709402E-2	7.205661E-2	2.401527E-2
10/19/2017  17:25:31.861424	-2.027630E-1	2.082484E-2	1.646291E-2	-1.013887E+1	2.222863E-2	2.709402E-2	7.459952E-2	2.910311E-2
								
10/19/2017  17:25:31.862424	-8.074715E-2	1.319332E-2	2.155331E-2	-1.013887E+1	1.457878E-2	2.455003E-2	8.731403E-2	3.164702E-2
10/19/2017  17:25:31.863424	4.429044E-1	1.319332E-2	1.137250E-2	-1.013887E+1	1.967868E-2	1.946206E-2	7.714242E-2	3.927877E-2
10/19/2017  17:25:31.864424	2.853005E-1	1.064948E-2	1.900811E-2	-1.013632E+1	4.378993E-3	1.437409E-2	6.951371E-2	3.673486E-2
10/19/2017  17:25:31.865424	4.606984E-1	1.319332E-2	1.900811E-2	-1.012614E+1	2.732853E-2	2.455003E-2	7.205661E-2	2.401527E-2
10/19/2017  17:25:31.866424	4.225684E-1	1.573716E-2	1.646291E-2	-1.013378E+1	1.967868E-2	1.946206E-2	7.714242E-2	2.147136E-2
10/19/2017  17:25:31.867424	8.194071E-2	1.828100E-2	8.827299E-3	-1.015160E+1	2.477858E-2	1.946206E-2	7.205661E-2	3.164702E-2
10/19/2017  17:25:31.868424	1.099027E-1	1.573716E-2	2.664372E-2	-1.013887E+1	1.967868E-2	2.455003E-2	8.222822E-2	3.673486E-2
10/19/2017  17:25:31.869424	1.632846E-1	8.105642E-3	2.409852E-2	-1.014142E+1	1.457878E-2	1.691808E-2	8.477112E-2	3.927877E-2
10/19/2017  17:25:31.870424	2.319186E-1	1.064948E-2	1.391770E-2	-1.012869E+1	3.497837E-2	9.286120E-3	7.205661E-2	2.401527E-2
10/19/2017  17:25:31.871424	-1.973920E-2	1.573716E-2	1.137250E-2	-1.014396E+1	2.222863E-2	1.437409E-2	8.222822E-2	3.164702E-2
10/19/2017  17:25:31.872424	6.414672E-2	2.336868E-2	2.664372E-2	-1.014142E+1	2.732853E-2	1.946206E-2	7.714242E-2	3.164702E-2
10/19/2017  17:25:31.873424	9.973469E-2	1.064948E-2	2.155331E-2	-1.013887E+1	1.457878E-2	2.200605E-2	7.205661E-2	3.419094E-2
10/19/2017  17:25:31.874424	1.584877E-2	1.319332E-2	1.646291E-2	-1.013887E+1	2.477858E-2	1.437409E-2	7.714242E-2	3.927877E-2
10/19/2017  17:25:31.875424	-1.925950E-1	1.064948E-2	1.900811E-2	-1.013632E+1	2.477858E-2	2.709402E-2	7.714242E-2	3.164702E-2
10/19/2017  17:25:31.876424	-1.570071E-1	1.573716E-2	8.827299E-3	-1.013378E+1	2.987847E-2	2.455003E-2	6.951371E-2	3.419094E-2
10/19/2017  17:25:31.877424	-2.736519E-2	2.082484E-2	1.646291E-2	-1.014651E+1	2.222863E-2	2.963800E-2	7.205661E-2	3.164702E-2
10/19/2017  17:25:31.878424	8.702470E-2	1.319332E-2	3.173413E-2	-1.014142E+1	1.457878E-2	2.200605E-2	8.222822E-2	3.673486E-2
10/19/2017  17:25:31.879424	-9.571210E-3	3.017961E-3	2.664372E-2	-1.013123E+1	1.202884E-2	1.437409E-2	8.222822E-2	3.927877E-2
10/19/2017  17:25:31.880424	-1.315871E-1	8.105642E-3	6.282096E-3	-1.013378E+1	1.712873E-2	4.198150E-3	6.697081E-2	2.910311E-2
10/19/2017  17:25:31.881424	-1.265031E-1	1.064948E-2	1.137250E-2	-1.013887E+1	3.242842E-2	2.709402E-2	6.951371E-2	2.147136E-2
10/19/2017  17:25:31.882424	-8.583114E-2	2.082484E-2	1.900811E-2	-1.013887E+1	1.712873E-2	4.490191E-2	8.222822E-2	3.419094E-2
10/19/2017  17:25:31.883424	1.276967E-1	1.064948E-2	2.664372E-2	-1.014142E+1	9.478889E-3	2.455003E-2	7.459952E-2	3.164702E-2
10/19/2017  17:25:31.884424	3.564765E-1	1.064948E-2	1.900811E-2	-1.013123E+1	2.222863E-2	1.654165E-3	7.968532E-2	3.164702E-2
10/19/2017  17:25:31.885424	2.954685E-1	2.845637E-2	1.137250E-2	-1.013378E+1	3.497837E-2	1.946206E-2	6.951371E-2	3.673486E-2
10/19/2017  17:25:31.886424	9.719269E-2	2.082484E-2	1.646291E-2	-1.014142E+1	1.967868E-2	1.691808E-2	7.714242E-2	2.401527E-2
10/19/2017  17:25:31.887424	1.022767E-1	1.064948E-2	2.409852E-2	-1.014651E+1	2.222863E-2	1.946206E-2	8.222822E-2	3.419094E-2
10/19/2017  17:25:31.888424	1.505746E-1	1.573716E-2	1.900811E-2	-1.013378E+1	1.967868E-2	2.200605E-2	7.205661E-2	4.182269E-2
10/19/2017  17:25:31.889424	1.785366E-1	5.561801E-3	1.391770E-2	-1.011596E+1	2.987847E-2	1.183011E-2	6.697081E-2	3.927877E-2
10/19/2017  17:25:31.890424	9.973469E-2	1.573716E-2	6.282096E-3	-1.014142E+1	2.987847E-2	1.946206E-2	6.951371E-2	2.147136E-2
10/19/2017  17:25:31.891424	7.939871E-2	2.336868E-2	1.900811E-2	-1.014651E+1	3.242842E-2	2.963800E-2	7.968532E-2	3.673486E-2
10/19/2017  17:25:31.892424	-1.925950E-1	1.828100E-2	2.155331E-2	-1.013378E+1	2.222863E-2	1.946206E-2	7.968532E-2	2.910311E-2
10/19/2017  17:25:31.893424	-3.247789E-1	1.319332E-2	2.155331E-2	-1.013887E+1	1.457878E-2	1.946206E-2	7.205661E-2	2.655919E-2
10/19/2017  17:25:31.894424	-1.570071E-1	1.064948E-2	1.646291E-2	-1.012614E+1	1.967868E-2	1.691808E-2	7.968532E-2	3.927877E-2
								
10/19/2017  17:25:31.895424	5.967806E-4	1.573716E-2	1.646291E-2	-1.013887E+1	2.222863E-2	2.455003E-2	7.205661E-2	2.401527E-2
10/19/2017  17:25:31.896424	4.098584E-1	1.064948E-2	8.827299E-3	-1.013378E+1	2.222863E-2	2.455003E-2	7.459952E-2	2.655919E-2
10/19/2017  17:25:31.897424	2.547966E-1	1.319332E-2	1.900811E-2	-1.013632E+1	1.712873E-2	1.946206E-2	7.459952E-2	4.691052E-2
10/19/2017  17:25:31.898424	2.776745E-1	1.573716E-2	2.409852E-2	-1.011850E+1	1.712873E-2	2.455003E-2	8.731403E-2	3.164702E-2
10/19/2017  17:25:31.899424	1.582006E-1	2.336868E-2	1.137250E-2	-1.013887E+1	1.967868E-2	9.286120E-3	7.968532E-2	3.673486E-2
10/19/2017  17:25:31.900424	-2.228120E-2	5.561801E-3	1.391770E-2	-1.013378E+1	1.967868E-2	9.286120E-3	6.951371E-2	3.673486E-2
10/19/2017  17:25:31.901424	-3.196949E-1	1.319332E-2	8.827299E-3	-1.014142E+1	2.732853E-2	1.946206E-2	6.951371E-2	2.401527E-2
10/19/2017  17:25:31.902424	-3.527409E-1	1.828100E-2	1.646291E-2	-1.014396E+1	1.457878E-2	2.709402E-2	7.459952E-2	2.655919E-2
10/19/2017  17:25:31.903424	8.194071E-2	8.105642E-3	1.137250E-2	-1.013632E+1	2.222863E-2	2.200605E-2	7.205661E-2	3.419094E-2
10/19/2017  17:25:31.904424	8.222774E-3	1.828100E-2	1.646291E-2	-1.013887E+1	1.712873E-2	1.946206E-2	8.731403E-2	3.164702E-2
10/19/2017  17:25:31.905424	2.853005E-1	1.064948E-2	2.918892E-2	-1.013378E+1	2.732853E-2	1.437409E-2	7.459952E-2	3.164702E-2
10/19/2017  17:25:31.906424	1.785366E-1	1.064948E-2	1.137250E-2	-1.012614E+1	2.477858E-2	1.946206E-2	5.679920E-2	2.910311E-2
10/19/2017  17:25:31.907424	1.531166E-1	1.573716E-2	2.664372E-2	-1.013632E+1	1.712873E-2	1.183011E-2	7.714242E-2	2.910311E-2
10/19/2017  17:25:31.908424	5.013703E-1	2.845637E-2	1.646291E-2	-1.013632E+1	2.732853E-2	2.709402E-2	7.459952E-2	2.910311E-2
10/19/2017  17:25:31.909424	4.632404E-1	1.828100E-2	2.155331E-2	-1.013632E+1	1.457878E-2	4.490191E-2	7.714242E-2	3.164702E-2
10/19/2017  17:25:31.910424	-1.239611E-1	3.017961E-3	1.900811E-2	-1.013887E+1	1.202884E-2	1.691808E-2	7.968532E-2	2.910311E-2
10/19/2017  17:25:31.911424	-3.832449E-1	8.105642E-3	1.900811E-2	-1.012614E+1	2.477858E-2	1.946206E-2	7.205661E-2	4.182269E-2
10/19/2017  17:25:31.912424	-3.578249E-1	5.561801E-3	1.900811E-2	-1.013887E+1	2.222863E-2	2.200605E-2	7.714242E-2	2.910311E-2
10/19/2017  17:25:31.913424	-2.154730E-1	1.064948E-2	1.646291E-2	-1.014142E+1	2.987847E-2	9.286120E-3	7.205661E-2	2.910311E-2
10/19/2017  17:25:31.914424	-2.307250E-1	2.082484E-2	1.900811E-2	-1.014905E+1	2.732853E-2	2.455003E-2	7.459952E-2	3.164702E-2
10/19/2017  17:25:31.915424	7.685671E-2	2.082484E-2	2.918892E-2	-1.013632E+1	1.457878E-2	2.709402E-2	8.222822E-2	3.419094E-2
10/19/2017  17:25:31.916424	2.802165E-1	-2.069720E-3	2.155331E-2	-1.013887E+1	1.967868E-2	1.946206E-2	8.477112E-2	3.164702E-2
10/19/2017  17:25:31.917424	3.615605E-1	1.064948E-2	1.646291E-2	-1.013632E+1	2.222863E-2	1.437409E-2	7.714242E-2	4.182269E-2
10/19/2017  17:25:31.918424	5.242483E-1	1.064948E-2	1.391770E-2	-1.012869E+1	1.712873E-2	1.437409E-2	7.968532E-2	3.419094E-2
10/19/2017  17:25:31.919424	1.937886E-1	1.573716E-2	1.137250E-2	-1.013887E+1	2.987847E-2	2.200605E-2	6.442791E-2	3.164702E-2
10/19/2017  17:25:31.920424	3.618475E-2	2.082484E-2	1.900811E-2	-1.013887E+1	1.967868E-2	2.709402E-2	6.951371E-2	3.673486E-2
10/19/2017  17:25:31.921424	-2.482320E-2	1.828100E-2	2.918892E-2	-1.013887E+1	1.457878E-2	2.455003E-2	7.714242E-2	2.401527E-2
10/19/2017  17:25:31.922424	-2.307250E-1	1.828100E-2	2.664372E-2	-1.013378E+1	1.712873E-2	1.946206E-2	8.222822E-2	4.182269E-2
10/19/2017  17:25:31.923424	-4.645888E-1	1.064948E-2	1.137250E-2	-1.014651E+1	1.967868E-2	1.183011E-2	6.951371E-2	3.673486E-2
10/19/2017  17:25:31.924424	7.939871E-2	5.561801E-3	1.646291E-2	-1.012869E+1	2.222863E-2	1.437409E-2	7.205661E-2	2.655919E-2
10/19/2017  17:25:31.925424	2.522546E-1	1.319332E-2	1.391770E-2	-1.011850E+1	2.987847E-2	2.709402E-2	7.968532E-2	2.910311E-2
10/19/2017  17:25:31.926424	2.217506E-1	1.828100E-2	1.646291E-2	-1.014651E+1	1.967868E-2	2.455003E-2	7.714242E-2	2.401527E-2
10/19/2017  17:25:31.927424	-1.620911E-1	2.082484E-2	1.900811E-2	-1.015669E+1	1.967868E-2	1.946206E-2	7.205661E-2	2.910311E-2
								
10/19/2017  17:25:31.928424	-4.900088E-1	1.828100E-2	2.664372E-2	-1.013887E+1	1.457878E-2	1.946206E-2	8.222822E-2	3.164702E-2
10/19/2017  17:25:31.929424	-2.180150E-1	1.064948E-2	1.900811E-2	-1.013632E+1	2.222863E-2	2.200605E-2	8.222822E-2	3.673486E-2
10/19/2017  17:25:31.930424	4.429044E-1	4.741205E-4	6.282096E-3	-1.013378E+1	1.457878E-2	1.183011E-2	6.951371E-2	3.673486E-2
10/19/2017  17:25:31.931424	5.318743E-1	2.082484E-2	1.137250E-2	-1.013123E+1	2.732853E-2	1.946206E-2	8.222822E-2	2.910311E-2
10/19/2017  17:25:31.932424	4.861183E-1	1.573716E-2	8.827299E-3	-1.013887E+1	3.497837E-2	2.455003E-2	7.459952E-2	3.164702E-2
10/19/2017  17:25:31.933424	7.431471E-2	1.828100E-2	1.900811E-2	-1.014651E+1	1.967868E-2	2.963800E-2	7.205661E-2	2.401527E-2
10/19/2017  17:25:31.934424	-1.010831E-1	1.828100E-2	1.137250E-2	-1.013632E+1	1.202884E-2	1.946206E-2	7.459952E-2	3.419094E-2
10/19/2017  17:25:31.935424	2.064986E-1	1.828100E-2	2.664372E-2	-1.013378E+1	1.457878E-2	2.455003E-2	8.222822E-2	2.910311E-2
10/19/2017  17:25:31.936424	2.751325E-1	1.064948E-2	2.409852E-2	-1.013123E+1	2.222863E-2	1.183011E-2	8.222822E-2	3.164702E-2
10/19/2017  17:25:31.937424	2.725905E-1	8.105642E-3	8.827299E-3	-1.013378E+1	2.987847E-2	1.946206E-2	7.205661E-2	3.164702E-2
10/19/2017  17:25:31.938424	2.878425E-1	1.573716E-2	1.391770E-2	-1.012869E+1	2.987847E-2	3.726996E-2	6.951371E-2	3.673486E-2
10/19/2017  17:25:31.939424	1.584877E-2	1.064948E-2	1.900811E-2	-1.014651E+1	1.457878E-2	2.455003E-2	6.951371E-2	2.147136E-2
10/19/2017  17:25:31.940424	8.702470E-2	1.828100E-2	1.646291E-2	-1.014396E+1	2.222863E-2	9.286120E-3	7.714242E-2	2.910311E-2
10/19/2017  17:25:31.941424	1.582006E-1	1.828100E-2	2.409852E-2	-1.014142E+1	2.477858E-2	1.946206E-2	8.477112E-2	3.164702E-2
10/19/2017  17:25:31.942424	1.632846E-1	5.561801E-3	1.900811E-2	-1.013378E+1	2.477858E-2	1.183011E-2	7.459952E-2	4.182269E-2
10/19/2017  17:25:31.943424	1.429487E-1	5.561801E-3	1.391770E-2	-1.012359E+1	2.222863E-2	1.691808E-2	6.951371E-2	2.910311E-2
10/19/2017  17:25:31.944424	1.963306E-1	1.828100E-2	8.827299E-3	-1.014396E+1	2.987847E-2	2.963800E-2	6.951371E-2	2.655919E-2
10/19/2017  17:25:31.945424	1.251547E-1	2.082484E-2	1.646291E-2	-1.013632E+1	2.222863E-2	2.709402E-2	7.459952E-2	2.401527E-2
10/19/2017  17:25:31.946424	9.973469E-2	1.319332E-2	2.155331E-2	-1.014651E+1	1.712873E-2	1.946206E-2	8.222822E-2	3.164702E-2
10/19/2017  17:25:31.947424	1.734526E-1	1.319332E-2	2.155331E-2	-1.013378E+1	1.829045E-3	2.455003E-2	7.714242E-2	2.655919E-2
10/19/2017  17:25:31.948424	1.709106E-1	8.105642E-3	2.155331E-2	-1.012105E+1	2.222863E-2	1.946206E-2	6.697081E-2	3.673486E-2
10/19/2017  17:25:31.949424	-1.112511E-1	1.573716E-2	8.827299E-3	-1.013632E+1	2.477858E-2	1.946206E-2	7.205661E-2	2.401527E-2
10/19/2017  17:25:31.950424	-4.162908E-1	1.319332E-2	1.646291E-2	-1.014396E+1	2.477858E-2	1.437409E-2	7.459952E-2	3.164702E-2
10/19/2017  17:25:31.951424	-3.069849E-1	2.591253E-2	1.900811E-2	-1.013887E+1	2.222863E-2	2.963800E-2	7.714242E-2	3.164702E-2
10/19/2017  17:25:31.952424	-3.044429E-1	1.828100E-2	2.664372E-2	-1.012869E+1	1.712873E-2	2.963800E-2	7.968532E-2	2.910311E-2
10/19/2017  17:25:31.953424	-4.925508E-1	8.105642E-3	2.664372E-2	-1.013378E+1	2.222863E-2	2.455003E-2	7.459952E-2	2.401527E-2
10/19/2017  17:25:31.954424	-1.239611E-1	3.017961E-3	2.409852E-2	-1.010323E+1	2.222863E-2	1.946206E-2	7.968532E-2	3.673486E-2
10/19/2017  17:25:31.955424	2.064986E-1	1.319332E-2	6.282096E-3	-1.013378E+1	2.732853E-2	1.437409E-2	7.459952E-2	3.927877E-2
10/19/2017  17:25:31.956424	5.572943E-1	1.319332E-2	1.137250E-2	-1.014905E+1	2.477858E-2	1.437409E-2	5.934210E-2	3.419094E-2
10/19/2017  17:25:31.957424	1.076477E-2	4.741205E-4	3.736893E-3	-1.012869E+1	2.477858E-2	2.200605E-2	7.459952E-2	2.910311E-2
10/19/2017  17:25:31.958424	1.632846E-1	2.082484E-2	1.646291E-2	-1.014142E+1	2.222863E-2	3.218199E-2	8.985693E-2	2.401527E-2
10/19/2017  17:25:31.959424	6.411802E-1	2.845637E-2	1.391770E-2	-1.014142E+1	2.477858E-2	2.963800E-2	7.459952E-2	2.401527E-2
10/19/2017  17:25:31.960424	3.005525E-1	1.064948E-2	2.664372E-2	-1.013378E+1	1.457878E-2	1.946206E-2	7.714242E-2	3.164702E-2
								
10/19/2017  17:25:31.961424	2.827585E-1	1.573716E-2	3.427933E-2	-1.013123E+1	1.202884E-2	1.183011E-2	8.222822E-2	3.927877E-2
10/19/2017  17:25:31.962424	3.895224E-1	8.105642E-3	1.900811E-2	-1.012869E+1	1.967868E-2	1.437409E-2	7.968532E-2	3.673486E-2
10/19/2017  17:25:31.963424	-2.228120E-2	1.319332E-2	-1.353514E-3	-1.013378E+1	2.477858E-2	1.691808E-2	6.951371E-2	2.655919E-2
10/19/2017  17:25:31.964424	-1.010831E-1	1.064948E-2	1.137250E-2	-1.014651E+1	2.222863E-2	2.200605E-2	7.714242E-2	3.419094E-2
10/19/2017  17:25:31.965424	3.285145E-1	2.082484E-2	2.155331E-2	-1.013632E+1	2.477858E-2	4.490191E-2	7.459952E-2	3.164702E-2
10/19/2017  17:25:31.966424	1.302387E-1	3.354405E-2	2.155331E-2	-1.013123E+1	2.732853E-2	2.200605E-2	7.714242E-2	3.164702E-2
10/19/2017  17:25:31.967424	-1.544651E-1	1.319332E-2	1.900811E-2	-1.013887E+1	1.712873E-2	6.742135E-3	8.222822E-2	2.147136E-2
10/19/2017  17:25:31.968424	1.330677E-2	2.082484E-2	2.664372E-2	-1.012614E+1	1.202884E-2	1.437409E-2	8.222822E-2	3.927877E-2
10/19/2017  17:25:31.969424	6.414672E-2	1.064948E-2	1.900811E-2	-1.013632E+1	2.477858E-2	1.691808E-2	7.459952E-2	3.673486E-2
10/19/2017  17:25:31.970424	9.465070E-2	1.064948E-2	1.646291E-2	-1.014142E+1	3.242842E-2	2.455003E-2	6.951371E-2	3.419094E-2
10/19/2017  17:25:31.971424	7.939871E-2	1.828100E-2	1.137250E-2	-1.013887E+1	2.477858E-2	3.218199E-2	7.205661E-2	2.910311E-2
10/19/2017  17:25:31.972424	1.683686E-1	2.336868E-2	1.646291E-2	-1.014142E+1	3.497837E-2	2.709402E-2	7.968532E-2	2.655919E-2
10/19/2017  17:25:31.973424	-1.087091E-1	1.319332E-2	2.155331E-2	-1.014142E+1	2.222863E-2	1.946206E-2	7.968532E-2	2.910311E-2
10/19/2017  17:25:31.974424	1.963306E-1	1.064948E-2	1.900811E-2	-1.013378E+1	1.967868E-2	1.946206E-2	7.459952E-2	2.147136E-2
10/19/2017  17:25:31.975424	1.302387E-1	5.561801E-3	2.155331E-2	-1.012614E+1	2.222863E-2	1.691808E-2	7.968532E-2	3.164702E-2
10/19/2017  17:25:31.976424	5.652073E-2	8.105642E-3	1.137250E-2	-1.013123E+1	2.732853E-2	1.946206E-2	6.951371E-2	2.910311E-2
10/19/2017  17:25:31.977424	-7.312115E-2	1.319332E-2	6.282096E-3	-1.014651E+1	2.732853E-2	2.963800E-2	6.697081E-2	2.401527E-2
10/19/2017  17:25:31.978424	-1.341291E-1	8.105642E-3	1.900811E-2	-1.013632E+1	2.732853E-2	2.455003E-2	7.459952E-2	3.673486E-2
10/19/2017  17:25:31.979424	1.836206E-1	2.082484E-2	1.900811E-2	-1.012614E+1	2.222863E-2	3.218199E-2	7.459952E-2	2.655919E-2
10/19/2017  17:25:31.980424	1.632846E-1	1.064948E-2	1.900811E-2	-1.013632E+1	1.457878E-2	1.691808E-2	8.222822E-2	2.401527E-2
10/19/2017  17:25:31.981424	7.431471E-2	1.319332E-2	2.155331E-2	-1.015924E+1	1.967868E-2	1.183011E-2	7.968532E-2	3.673486E-2
10/19/2017  17:25:31.982424	2.293766E-1	1.573716E-2	2.155331E-2	-1.013378E+1	2.477858E-2	1.946206E-2	7.714242E-2	3.927877E-2
10/19/2017  17:25:31.983424	1.073607E-1	1.064948E-2	1.900811E-2	-1.013123E+1	2.222863E-2	1.183011E-2	7.968532E-2	3.164702E-2
10/19/2017  17:25:31.984424	-6.041116E-2	8.105642E-3	3.736893E-3	-1.013887E+1	2.222863E-2	1.946206E-2	6.697081E-2	3.673486E-2
10/19/2017  17:25:31.985424	-7.566315E-2	2.082484E-2	8.827299E-3	-1.014651E+1	2.987847E-2	2.963800E-2	7.205661E-2	2.910311E-2
10/19/2017  17:25:31.986424	3.872675E-2	2.336868E-2	1.391770E-2	-1.014396E+1	2.477858E-2	2.200605E-2	7.714242E-2	2.910311E-2
10/19/2017  17:25:31.987424	1.810786E-1	1.828100E-2	1.900811E-2	-1.014142E+1	2.222863E-2	1.946206E-2	6.951371E-2	3.419094E-2
10/19/2017  17:25:31.988424	2.039566E-1	1.319332E-2	3.682453E-2	-1.014651E+1	1.202884E-2	2.963800E-2	8.222822E-2	3.164702E-2
10/19/2017  17:25:31.989424	9.465070E-2	1.828100E-2	2.155331E-2	-1.013123E+1	1.712873E-2	1.946206E-2	7.205661E-2	2.910311E-2
10/19/2017  17:25:31.990424	9.973469E-2	1.064948E-2	2.409852E-2	-1.014142E+1	6.928941E-3	1.183011E-2	7.205661E-2	3.164702E-2
10/19/2017  17:25:31.991424	-9.599913E-2	5.561801E-3	1.900811E-2	-1.013632E+1	2.222863E-2	1.437409E-2	7.714242E-2	3.927877E-2
10/19/2017  17:25:31.992424	-3.476569E-1	8.105642E-3	1.137250E-2	-1.012869E+1	2.477858E-2	2.709402E-2	7.205661E-2	4.436661E-2
10/19/2017  17:25:31.993424	-2.790230E-1	2.082484E-2	1.391770E-2	-1.013632E+1	2.477858E-2	1.946206E-2	7.459952E-2	3.164702E-2
								
10/19/2017  17:25:31.994424	-2.078470E-1	8.105642E-3	1.900811E-2	-1.013378E+1	2.222863E-2	2.709402E-2	7.714242E-2	3.164702E-2
10/19/2017  17:25:31.995424	2.242926E-1	2.845637E-2	1.137250E-2	-1.013632E+1	1.457878E-2	1.946206E-2	7.205661E-2	3.164702E-2
10/19/2017  17:25:31.996424	3.158045E-1	1.828100E-2	1.137250E-2	-1.013632E+1	2.477858E-2	1.437409E-2	7.205661E-2	2.401527E-2
10/19/2017  17:25:31.997424	3.869804E-1	3.017961E-3	1.900811E-2	-1.014905E+1	1.967868E-2	2.963800E-2	6.951371E-2	2.655919E-2
10/19/2017  17:25:31.998424	-7.820515E-2	1.064948E-2	1.391770E-2	-1.013378E+1	2.222863E-2	2.200605E-2	7.459952E-2	3.673486E-2
10/19/2017  17:25:31.999424	-8.074715E-2	1.828100E-2	1.646291E-2	-1.013123E+1	3.242842E-2	1.437409E-2	8.477112E-2	3.673486E-2
10/19/2017  17:25:32.000424	5.967806E-4	1.064948E-2	1.391770E-2	-1.013378E+1	1.967868E-2	1.437409E-2	7.205661E-2	3.927877E-2
10/19/2017  17:25:32.001424	2.347476E-2	8.105642E-3	1.391770E-2	-1.013378E+1	2.477858E-2	1.437409E-2	6.697081E-2	3.164702E-2
10/19/2017  17:25:32.002424	-5.278517E-2	1.319332E-2	1.391770E-2	-1.015160E+1	2.477858E-2	2.709402E-2	6.697081E-2	2.910311E-2
10/19/2017  17:25:32.003424	2.347476E-2	1.828100E-2	2.155331E-2	-1.014651E+1	9.478889E-3	2.709402E-2	7.205661E-2	1.892744E-2
10/19/2017  17:25:32.004424	3.971484E-1	2.082484E-2	2.155331E-2	-1.015415E+1	1.712873E-2	2.455003E-2	8.731403E-2	3.164702E-2
10/19/2017  17:25:32.005424	1.531166E-1	8.105642E-3	2.664372E-2	-1.013887E+1	1.712873E-2	1.437409E-2	8.222822E-2	3.673486E-2
10/19/2017  17:25:32.006424	3.138778E-3	5.561801E-3	2.155331E-2	-1.013378E+1	1.967868E-2	1.946206E-2	7.205661E-2	3.673486E-2
10/19/2017  17:25:32.007424	1.200707E-1	1.064948E-2	1.137250E-2	-1.013887E+1	1.967868E-2	2.455003E-2	7.459952E-2	2.401527E-2
10/19/2017  17:25:32.008424	-4.515918E-2	1.319332E-2	1.137250E-2	-1.013887E+1	2.987847E-2	1.946206E-2	7.205661E-2	3.164702E-2
10/19/2017  17:25:32.009424	-9.854113E-2	1.828100E-2	1.646291E-2	-1.014396E+1	1.712873E-2	2.963800E-2	7.459952E-2	2.147136E-2
10/19/2017  17:25:32.010424	1.963306E-1	1.828100E-2	2.409852E-2	-1.013887E+1	1.457878E-2	2.709402E-2	7.968532E-2	2.655919E-2
10/19/2017  17:25:32.011424	-9.091514E-2	8.105642E-3	2.918892E-2	-1.013887E+1	1.712873E-2	2.200605E-2	8.222822E-2	3.164702E-2
10/19/2017  17:25:32.012424	-3.451149E-1	1.573716E-2	1.391770E-2	-1.013887E+1	2.222863E-2	2.200605E-2	6.697081E-2	3.673486E-2
10/19/2017  17:25:32.013424	2.497126E-1	5.561801E-3	1.137250E-2	-1.012869E+1	1.967868E-2	9.286120E-3	7.714242E-2	3.419094E-2
10/19/2017  17:25:32.014424	2.878425E-1	1.828100E-2	1.137250E-2	-1.013887E+1	2.987847E-2	2.455003E-2	7.714242E-2	2.910311E-2
10/19/2017  17:25:32.015424	3.463085E-1	2.591253E-2	2.155331E-2	-1.013887E+1	2.987847E-2	2.709402E-2	6.951371E-2	2.655919E-2
10/19/2017  17:25:32.016424	1.531166E-1	1.573716E-2	1.900811E-2	-1.014142E+1	1.967868E-2	2.455003E-2	7.205661E-2	2.655919E-2
10/19/2017  17:25:32.017424	6.160473E-2	2.082484E-2	1.137250E-2	-1.014396E+1	4.378993E-3	1.946206E-2	7.968532E-2	3.164702E-2
10/19/2017  17:25:32.018424	-2.459770E-1	1.319332E-2	2.409852E-2	-1.012869E+1	1.712873E-2	2.455003E-2	7.968532E-2	3.673486E-2
10/19/2017  17:25:32.019424	-2.536030E-1	1.064948E-2	1.900811E-2	-1.013378E+1	2.477858E-2	9.286120E-3	7.205661E-2	4.182269E-2
10/19/2017  17:25:32.020424	-7.057916E-2	1.828100E-2	1.900811E-2	-1.013887E+1	1.712873E-2	2.200605E-2	7.459952E-2	3.164702E-2
10/19/2017  17:25:32.021424	1.251547E-1	1.828100E-2	1.137250E-2	-1.014142E+1	2.987847E-2	2.200605E-2	7.205661E-2	2.910311E-2
10/19/2017  17:25:32.022424	9.973469E-2	3.608789E-2	1.900811E-2	-1.013887E+1	2.477858E-2	2.455003E-2	7.459952E-2	2.401527E-2
10/19/2017  17:25:32.023424	8.956670E-2	1.828100E-2	1.900811E-2	-1.014142E+1	1.967868E-2	4.198150E-3	7.459952E-2	2.147136E-2
10/19/2017  17:25:32.024424	9.973469E-2	-2.069720E-3	2.664372E-2	-1.014651E+1	9.478889E-3	2.200605E-2	8.222822E-2	3.419094E-2
10/19/2017  17:25:32.025424	2.115826E-1	1.064948E-2	2.664372E-2	-1.012614E+1	1.712873E-2	1.691808E-2	8.222822E-2	4.182269E-2
10/19/2017  17:25:32.026424	-4.849248E-1	8.105642E-3	1.391770E-2	-1.013123E+1	2.987847E-2	1.691808E-2	7.459952E-2	3.673486E-2
								
10/19/2017  17:25:32.027424	1.022767E-1	1.319332E-2	1.391770E-2	-1.013632E+1	1.712873E-2	2.200605E-2	7.459952E-2	3.164702E-2
10/19/2017  17:25:32.028424	1.887046E-1	1.828100E-2	1.391770E-2	-1.013378E+1	4.007827E-2	2.200605E-2	6.951371E-2	3.673486E-2
10/19/2017  17:25:32.029424	6.132182E-1	1.573716E-2	1.646291E-2	-1.013887E+1	2.477858E-2	2.455003E-2	6.442791E-2	2.401527E-2
10/19/2017  17:25:32.030424	1.531166E-1	1.064948E-2	1.900811E-2	-1.013887E+1	1.202884E-2	1.946206E-2	6.697081E-2	2.401527E-2
10/19/2017  17:25:32.031424	-1.290451E-1	1.828100E-2	1.900811E-2	-1.013887E+1	2.222863E-2	2.963800E-2	8.222822E-2	2.401527E-2
10/19/2017  17:25:32.032424	-2.358090E-1	2.336868E-2	1.900811E-2	-1.014142E+1	1.457878E-2	2.709402E-2	7.459952E-2	3.927877E-2
10/19/2017  17:25:32.033424	4.683244E-1	2.082484E-2	2.155331E-2	-1.012869E+1	1.712873E-2	2.963800E-2	7.968532E-2	2.401527E-2
10/19/2017  17:25:32.034424	4.861183E-1	1.319332E-2	2.409852E-2	-1.013123E+1	1.457878E-2	2.455003E-2	8.222822E-2	2.401527E-2
10/19/2017  17:25:32.035424	3.946064E-1	1.064948E-2	2.664372E-2	-1.012105E+1	1.457878E-2	2.200605E-2	8.222822E-2	3.927877E-2
10/19/2017  17:25:32.036424	2.293766E-1	1.828100E-2	1.646291E-2	-1.013887E+1	1.967868E-2	1.691808E-2	7.459952E-2	2.401527E-2
10/19/2017  17:25:32.037424	7.431471E-2	1.319332E-2	2.409852E-2	-1.013887E+1	2.477858E-2	9.286120E-3	7.968532E-2	2.910311E-2
10/19/2017  17:25:32.038424	4.889474E-2	4.741205E-4	1.646291E-2	-1.012869E+1	2.987847E-2	1.691808E-2	6.697081E-2	3.927877E-2
10/19/2017  17:25:32.039424	-1.570071E-1	1.064948E-2	1.391770E-2	-1.013632E+1	2.732853E-2	2.455003E-2	6.442791E-2	3.164702E-2
10/19/2017  17:25:32.040424	-2.736519E-2	1.064948E-2	6.282096E-3	-1.013378E+1	1.712873E-2	1.183011E-2	7.459952E-2	3.164702E-2
10/19/2017  17:25:32.041424	3.364275E-2	2.082484E-2	1.391770E-2	-1.014142E+1	1.967868E-2	2.455003E-2	6.951371E-2	2.655919E-2
10/19/2017  17:25:32.042424	-9.599913E-2	1.828100E-2	3.936974E-2	-1.014142E+1	1.712873E-2	3.218199E-2	7.968532E-2	3.164702E-2
10/19/2017  17:25:32.043424	5.652073E-2	1.319332E-2	2.664372E-2	-1.013632E+1	1.202884E-2	1.946206E-2	8.222822E-2	2.655919E-2
10/19/2017  17:25:32.044424	2.573385E-1	1.064948E-2	3.173413E-2	-1.013632E+1	1.712873E-2	1.437409E-2	7.714242E-2	2.910311E-2
10/19/2017  17:25:32.045424	4.708664E-1	1.319332E-2	1.646291E-2	-1.012869E+1	2.477858E-2	1.437409E-2	7.459952E-2	3.419094E-2
10/19/2017  17:25:32.046424	4.657824E-1	5.561801E-3	-1.353514E-3	-1.012614E+1	3.242842E-2	1.946206E-2	6.951371E-2	4.182269E-2
10/19/2017  17:25:32.047424	-1.697171E-1	5.561801E-3	1.391770E-2	-1.013887E+1	2.222863E-2	1.946206E-2	6.697081E-2	3.164702E-2
10/19/2017  17:25:32.048424	-3.883289E-1	1.319332E-2	2.155331E-2	-1.013632E+1	2.987847E-2	4.490191E-2	6.951371E-2	3.164702E-2
10/19/2017  17:25:32.049424	-5.205127E-1	3.608789E-2	1.646291E-2	-1.013632E+1	2.477858E-2	2.709402E-2	7.459952E-2	2.147136E-2
10/19/2017  17:25:32.050424	-1.849691E-1	2.336868E-2	1.900811E-2	-1.014142E+1	2.222863E-2	2.709402E-2	8.222822E-2	2.655919E-2
10/19/2017  17:25:32.051424	2.370026E-1	1.828100E-2	2.664372E-2	-1.015415E+1	1.457878E-2	2.963800E-2	8.222822E-2	2.147136E-2
10/19/2017  17:25:32.052424	-1.798851E-1	1.319332E-2	2.664372E-2	-1.012869E+1	1.712873E-2	2.455003E-2	8.222822E-2	3.164702E-2
10/19/2017  17:25:32.053424	4.124004E-1	1.064948E-2	1.900811E-2	-1.013632E+1	1.712873E-2	1.946206E-2	7.968532E-2	3.673486E-2
10/19/2017  17:25:32.054424	5.395003E-1	1.064948E-2	1.900811E-2	-1.014651E+1	2.222863E-2	1.946206E-2	7.459952E-2	3.927877E-2
10/19/2017  17:25:32.055424	6.793102E-1	1.319332E-2	1.900811E-2	-1.012869E+1	4.007827E-2	1.691808E-2	7.459952E-2	4.436661E-2
10/19/2017  17:25:32.056424	2.624225E-1	1.573716E-2	2.409852E-2	-1.011850E+1	2.222863E-2	1.946206E-2	7.714242E-2	3.164702E-2
10/19/2017  17:25:32.057424	4.126874E-2	1.064948E-2	1.646291E-2	-1.013123E+1	1.457878E-2	1.946206E-2	6.442791E-2	2.147136E-2
10/19/2017  17:25:32.058424	2.319186E-1	1.064948E-2	2.155331E-2	-1.014651E+1	1.712873E-2	1.437409E-2	7.714242E-2	2.910311E-2
10/19/2017  17:25:32.059424	-1.366711E-1	2.082484E-2	2.155331E-2	-1.013887E+1	2.732853E-2	2.963800E-2	7.459952E-2	4.182269E-2
								
10/19/2017  17:25:32.060424	-2.663130E-1	1.828100E-2	1.900811E-2	-1.014651E+1	1.712873E-2	1.946206E-2	7.205661E-2	3.164702E-2
10/19/2017  17:25:32.061424	-5.278517E-2	1.064948E-2	2.664372E-2	-1.013632E+1	1.457878E-2	2.200605E-2	8.222822E-2	3.673486E-2
10/19/2017  17:25:32.062424	3.234305E-1	5.561801E-3	2.155331E-2	-1.012105E+1	1.457878E-2	1.691808E-2	8.731403E-2	3.927877E-2
10/19/2017  17:25:32.063424	3.310565E-1	5.561801E-3	2.918892E-2	-1.012869E+1	2.222863E-2	1.946206E-2	7.459952E-2	2.147136E-2
10/19/2017  17:25:32.064424	-2.027630E-1	8.105642E-3	2.155331E-2	-1.014905E+1	2.222863E-2	6.742135E-3	6.951371E-2	3.927877E-2
10/19/2017  17:25:32.065424	-3.476569E-1	4.741205E-4	2.155331E-2	-1.013632E+1	3.242842E-2	1.691808E-2	6.697081E-2	3.164702E-2
10/19/2017  17:25:32.066424	-7.467505E-1	1.573716E-2	1.137250E-2	-1.013378E+1	2.477858E-2	3.218199E-2	7.968532E-2	3.164702E-2
10/19/2017  17:25:32.067424	-4.162908E-1	2.082484E-2	6.282096E-3	-1.013632E+1	1.967868E-2	2.200605E-2	7.459952E-2	2.910311E-2
10/19/2017  17:25:32.068424	1.556586E-1	1.319332E-2	1.900811E-2	-1.013887E+1	2.222863E-2	2.963800E-2	6.951371E-2	2.910311E-2
10/19/2017  17:25:32.069424	4.149424E-1	1.828100E-2	3.173413E-2	-1.013632E+1	1.967868E-2	1.946206E-2	7.714242E-2	2.910311E-2
10/19/2017  17:25:32.070424	7.809901E-1	1.064948E-2	2.664372E-2	-1.013123E+1	1.457878E-2	2.455003E-2	7.205661E-2	3.164702E-2
10/19/2017  17:25:32.071424	-2.510610E-1	1.064948E-2	1.137250E-2	-1.013123E+1	1.202884E-2	2.455003E-2	7.968532E-2	3.927877E-2
10/19/2017  17:25:32.072424	-1.722591E-1	1.573716E-2	1.900811E-2	-1.012869E+1	2.987847E-2	1.946206E-2	7.459952E-2	3.164702E-2
10/19/2017  17:25:32.073424	-3.753318E-2	8.105642E-3	1.137250E-2	-1.012869E+1	2.987847E-2	3.726996E-2	6.951371E-2	4.182269E-2
10/19/2017  17:25:32.074424	5.967806E-4	4.741205E-4	1.137250E-2	-1.013887E+1	2.477858E-2	2.455003E-2	6.951371E-2	2.655919E-2
10/19/2017  17:25:32.075424	4.657824E-1	1.064948E-2	1.900811E-2	-1.013632E+1	2.222863E-2	6.742135E-3	7.205661E-2	3.164702E-2
10/19/2017  17:25:32.076424	3.138778E-3	2.591253E-2	2.664372E-2	-1.014396E+1	1.712873E-2	2.963800E-2	7.968532E-2	2.401527E-2
10/19/2017  17:25:32.077424	1.839076E-2	1.319332E-2	2.409852E-2	-1.013887E+1	1.457878E-2	1.437409E-2	8.222822E-2	3.164702E-2
10/19/2017  17:25:32.078424	1.937886E-1	4.741205E-4	1.646291E-2	-1.013632E+1	2.732853E-2	2.455003E-2	7.968532E-2	4.182269E-2
10/19/2017  17:25:32.079424	4.276524E-1	1.319332E-2	1.900811E-2	-1.012614E+1	1.712873E-2	1.691808E-2	7.205661E-2	3.419094E-2
10/19/2017  17:25:32.080424	1.861626E-1	1.319332E-2	1.900811E-2	-1.013123E+1	2.477858E-2	1.946206E-2	6.951371E-2	2.655919E-2
10/19/2017  17:25:32.081424	8.194071E-2	1.828100E-2	1.646291E-2	-1.014905E+1	2.222863E-2	2.709402E-2	7.968532E-2	2.401527E-2
10/19/2017  17:25:32.082424	4.022324E-1	1.573716E-2	2.664372E-2	-1.014396E+1	3.242842E-2	2.709402E-2	8.985693E-2	2.401527E-2
10/19/2017  17:25:32.083424	1.124447E-1	1.319332E-2	3.173413E-2	-1.013123E+1	1.712873E-2	2.455003E-2	8.222822E-2	2.655919E-2
10/19/2017  17:25:32.084424	-9.571210E-3	1.319332E-2	1.646291E-2	-1.013887E+1	1.457878E-2	1.946206E-2	6.697081E-2	3.164702E-2
10/19/2017  17:25:32.085424	-9.599913E-2	1.064948E-2	1.137250E-2	-1.013378E+1	1.967868E-2	1.946206E-2	7.968532E-2	3.164702E-2
10/19/2017  17:25:32.086424	8.222774E-3	1.064948E-2	1.391770E-2	-1.013887E+1	2.732853E-2	1.946206E-2	7.205661E-2	2.655919E-2
10/19/2017  17:25:32.087424	1.785366E-1	2.082484E-2	1.900811E-2	-1.014651E+1	2.732853E-2	2.200605E-2	6.697081E-2	2.655919E-2
10/19/2017  17:25:32.088424	2.675065E-1	1.573716E-2	2.155331E-2	-1.014651E+1	2.222863E-2	2.963800E-2	7.459952E-2	2.401527E-2
10/19/2017  17:25:32.089424	-5.024317E-2	1.064948E-2	1.900811E-2	-1.011850E+1	1.967868E-2	2.963800E-2	8.222822E-2	3.164702E-2
10/19/2017  17:25:32.090424	3.110075E-2	2.082484E-2	2.155331E-2	-1.013378E+1	1.967868E-2	1.946206E-2	8.477112E-2	2.910311E-2
10/19/2017  17:25:32.091424	4.861183E-1	8.105642E-3	1.900811E-2	-1.013887E+1	2.222863E-2	9.286120E-3	7.205661E-2	3.673486E-2
10/19/2017  17:25:32.092424	3.056365E-1	5.561801E-3	1.900811E-2	-1.013378E+1	2.222863E-2	1.946206E-2	7.459952E-2	3.673486E-2
								
10/19/2017  17:25:32.093424	-4.007518E-2	1.064948E-2	1.391770E-2	-1.013632E+1	2.477858E-2	2.963800E-2	7.714242E-2	2.910311E-2
10/19/2017  17:25:32.094424	-6.399866E-1	1.064948E-2	3.736893E-3	-1.014142E+1	2.732853E-2	1.437409E-2	7.714242E-2	3.164702E-2
10/19/2017  17:25:32.095424	-3.146109E-1	2.591253E-2	1.646291E-2	-1.014396E+1	2.477858E-2	2.963800E-2	8.731403E-2	2.655919E-2
10/19/2017  17:25:32.096424	-2.736519E-2	2.082484E-2	3.173413E-2	-1.014142E+1	2.477858E-2	3.218199E-2	8.222822E-2	3.164702E-2
10/19/2017  17:25:32.097424	5.318743E-1	5.561801E-3	1.900811E-2	-1.013887E+1	2.222863E-2	2.455003E-2	7.459952E-2	3.164702E-2
10/19/2017  17:25:32.098424	1.683686E-1	1.573716E-2	1.137250E-2	-1.014142E+1	6.928941E-3	1.437409E-2	8.222822E-2	2.655919E-2
10/19/2017  17:25:32.099424	2.064986E-1	1.573716E-2	2.664372E-2	-1.012869E+1	1.457878E-2	1.437409E-2	7.968532E-2	3.927877E-2
10/19/2017  17:25:32.100424	4.889474E-2	1.064948E-2	1.900811E-2	-1.012614E+1	2.222863E-2	2.963800E-2	7.968532E-2	4.182269E-2
10/19/2017  17:25:32.101424	1.330677E-2	3.017961E-3	1.646291E-2	-1.013887E+1	2.222863E-2	2.455003E-2	7.459952E-2	3.164702E-2
10/19/2017  17:25:32.102424	-1.951370E-1	1.064948E-2	1.391770E-2	-1.013887E+1	3.242842E-2	3.218199E-2	7.459952E-2	3.164702E-2
10/19/2017  17:25:32.103424	-2.459770E-1	1.319332E-2	1.391770E-2	-1.013632E+1	3.497837E-2	2.963800E-2	7.205661E-2	2.655919E-2
10/19/2017  17:25:32.104424	-2.281830E-1	2.082484E-2	1.391770E-2	-1.014651E+1	2.222863E-2	1.183011E-2	7.714242E-2	2.401527E-2
10/19/2017  17:25:32.105424	4.251104E-1	4.741205E-4	2.664372E-2	-1.014905E+1	2.222863E-2	2.963800E-2	8.222822E-2	3.927877E-2
10/19/2017  17:25:32.106424	4.403624E-1	1.319332E-2	2.664372E-2	-1.013378E+1	1.457878E-2	2.455003E-2	8.222822E-2	3.419094E-2
10/19/2017  17:25:32.107424	4.126874E-2	1.064948E-2	2.409852E-2	-1.013632E+1	2.222863E-2	1.691808E-2	8.222822E-2	2.910311E-2
10/19/2017  17:25:32.108424	5.680776E-3	3.017961E-3	1.646291E-2	-1.013632E+1	1.967868E-2	1.437409E-2	7.968532E-2	3.927877E-2
10/19/2017  17:25:32.109424	5.967806E-4	1.064948E-2	1.900811E-2	-1.013123E+1	1.967868E-2	2.200605E-2	7.968532E-2	4.436661E-2
10/19/2017  17:25:32.110424	9.210870E-2	1.319332E-2	2.409852E-2	-1.014651E+1	1.967868E-2	1.437409E-2	6.697081E-2	3.419094E-2
10/19/2017  17:25:32.111424	-6.803716E-2	1.064948E-2	1.137250E-2	-1.013632E+1	1.967868E-2	1.946206E-2	6.442791E-2	2.910311E-2
10/19/2017  17:25:32.112424	-1.798851E-1	2.082484E-2	8.827299E-3	-1.013887E+1	2.987847E-2	1.691808E-2	7.459952E-2	3.164702E-2
10/19/2017  17:25:32.113424	5.906273E-2	2.082484E-2	1.391770E-2	-1.014651E+1	2.987847E-2	2.455003E-2	7.205661E-2	2.147136E-2
10/19/2017  17:25:32.114424	-1.036251E-1	1.828100E-2	1.646291E-2	-1.015160E+1	1.967868E-2	2.963800E-2	6.951371E-2	2.655919E-2
10/19/2017  17:25:32.115424	-1.468391E-1	1.319332E-2	1.137250E-2	-1.013887E+1	2.222863E-2	2.455003E-2	7.205661E-2	3.927877E-2
10/19/2017  17:25:32.116424	-3.476569E-1	1.573716E-2	2.155331E-2	-1.012105E+1	1.712873E-2	2.709402E-2	8.731403E-2	3.673486E-2
10/19/2017  17:25:32.117424	-3.781609E-1	2.082484E-2	3.173413E-2	-1.012614E+1	1.712873E-2	1.946206E-2	7.968532E-2	3.673486E-2
10/19/2017  17:25:32.118424	3.971484E-1	1.319332E-2	1.900811E-2	-1.013887E+1	2.222863E-2	1.946206E-2	6.951371E-2	3.673486E-2
10/19/2017  17:25:32.119424	6.691422E-1	5.561801E-3	2.409852E-2	-1.013123E+1	2.222863E-2	1.946206E-2	7.459952E-2	4.182269E-2
10/19/2017  17:25:32.120424	8.394560E-1	1.064948E-2	1.646291E-2	-1.012359E+1	2.987847E-2	1.946206E-2	6.442791E-2	3.927877E-2
10/19/2017  17:25:32.121424	4.683244E-1	1.319332E-2	6.282096E-3	-1.013632E+1	2.477858E-2	1.946206E-2	6.697081E-2	2.655919E-2
10/19/2017  17:25:32.122424	3.158045E-1	1.573716E-2	1.391770E-2	-1.013632E+1	3.242842E-2	2.200605E-2	6.697081E-2	3.164702E-2
10/19/2017  17:25:32.123424	5.143673E-2	2.845637E-2	2.155331E-2	-1.013887E+1	2.477858E-2	3.218199E-2	6.951371E-2	2.655919E-2
10/19/2017  17:25:32.124424	-2.027630E-1	1.828100E-2	1.900811E-2	-1.014142E+1	1.967868E-2	2.709402E-2	7.459952E-2	2.401527E-2
10/19/2017  17:25:32.125424	3.768124E-1	1.573716E-2	1.646291E-2	-1.013887E+1	1.457878E-2	1.946206E-2	7.459952E-2	2.147136E-2
								
10/19/2017  17:25:32.126424	-9.091514E-2	2.082484E-2	2.409852E-2	-1.013123E+1	1.457878E-2	2.709402E-2	8.477112E-2	3.419094E-2
10/19/2017  17:25:32.127424	-1.595491E-1	1.319332E-2	2.409852E-2	-1.013123E+1	2.222863E-2	1.691808E-2	8.222822E-2	3.673486E-2
10/19/2017  17:25:32.128424	2.395446E-1	8.105642E-3	1.646291E-2	-1.014396E+1	1.967868E-2	1.946206E-2	8.222822E-2	3.927877E-2
10/19/2017  17:25:32.129424	-8.583114E-2	1.319332E-2	1.646291E-2	-1.013887E+1	2.477858E-2	2.709402E-2	7.968532E-2	4.182269E-2
10/19/2017  17:25:32.130424	-4.900088E-1	5.561801E-3	1.646291E-2	-1.011596E+1	1.712873E-2	1.691808E-2	6.697081E-2	3.419094E-2
10/19/2017  17:25:32.131424	-1.214191E-1	1.319332E-2	1.900811E-2	-1.012869E+1	1.712873E-2	1.437409E-2	7.205661E-2	2.655919E-2
10/19/2017  17:25:32.132424	6.488062E-1	-2.069720E-3	1.391770E-2	-1.014396E+1	3.497837E-2	2.455003E-2	7.205661E-2	3.419094E-2
10/19/2017  17:25:32.133424	-3.244919E-2	1.828100E-2	1.137250E-2	-1.013123E+1	2.732853E-2	2.963800E-2	6.951371E-2	3.419094E-2
10/19/2017  17:25:32.134424	-2.002210E-1	2.336868E-2	1.391770E-2	-1.015160E+1	4.262821E-2	2.963800E-2	7.205661E-2	2.401527E-2
10/19/2017  17:25:32.135424	-2.866490E-1	2.082484E-2	2.664372E-2	-1.014142E+1	2.222863E-2	2.709402E-2	7.205661E-2	2.910311E-2
10/19/2017  17:25:32.136424	-2.968170E-1	1.319332E-2	2.664372E-2	-1.013632E+1	1.712873E-2	2.455003E-2	8.477112E-2	2.910311E-2
10/19/2017  17:25:32.137424	-3.247789E-1	1.319332E-2	2.664372E-2	-1.014396E+1	1.457878E-2	1.691808E-2	7.968532E-2	3.927877E-2
10/19/2017  17:25:32.138424	6.208442E-1	1.064948E-2	1.646291E-2	-1.013378E+1	2.477858E-2	2.200605E-2	7.205661E-2	4.182269E-2
10/19/2017  17:25:32.139424	4.098584E-1	1.064948E-2	1.900811E-2	-1.012359E+1	2.222863E-2	1.946206E-2	7.968532E-2	3.164702E-2
10/19/2017  17:25:32.140424	-2.281830E-1	1.319332E-2	1.137250E-2	-1.013123E+1	2.222863E-2	1.183011E-2	6.951371E-2	4.945444E-2
10/19/2017  17:25:32.141424	-3.603669E-1	1.064948E-2	8.827299E-3	-1.014905E+1	2.732853E-2	1.691808E-2	6.697081E-2	3.164702E-2
10/19/2017  17:25:32.142424	-2.536030E-1	1.319332E-2	1.391770E-2	-1.013887E+1	2.987847E-2	2.455003E-2	7.205661E-2	2.401527E-2
10/19/2017  17:25:32.143424	-5.786917E-2	1.573716E-2	1.391770E-2	-1.012614E+1	2.477858E-2	2.963800E-2	7.205661E-2	2.401527E-2
10/19/2017  17:25:32.144424	1.454906E-1	1.319332E-2	2.155331E-2	-1.013378E+1	1.967868E-2	1.691808E-2	7.459952E-2	3.164702E-2
10/19/2017  17:25:32.145424	1.734526E-1	2.082484E-2	1.646291E-2	-1.013632E+1	1.967868E-2	2.455003E-2	7.968532E-2	2.401527E-2
10/19/2017  17:25:32.146424	-2.053050E-1	2.082484E-2	2.155331E-2	-1.014905E+1	2.477858E-2	2.963800E-2	7.205661E-2	2.401527E-2
10/19/2017  17:25:32.147424	4.635274E-2	1.319332E-2	1.646291E-2	-1.015669E+1	1.967868E-2	1.183011E-2	7.459952E-2	2.910311E-2
10/19/2017  17:25:32.148424	3.183465E-1	1.064948E-2	1.391770E-2	-1.013123E+1	9.478889E-3	1.946206E-2	8.222822E-2	2.910311E-2
10/19/2017  17:25:32.149424	3.335985E-1	1.064948E-2	1.646291E-2	-1.013887E+1	1.967868E-2	1.946206E-2	8.985693E-2	3.673486E-2
10/19/2017  17:25:32.150424	2.878425E-1	1.064948E-2	3.173413E-2	-1.013123E+1	2.477858E-2	1.691808E-2	7.205661E-2	4.182269E-2
10/19/2017  17:25:32.151424	1.912466E-1	1.064948E-2	1.391770E-2	-1.013632E+1	2.477858E-2	1.437409E-2	7.459952E-2	4.182269E-2
10/19/2017  17:25:32.152424	3.110075E-2	2.082484E-2	1.137250E-2	-1.013632E+1	1.457878E-2	2.709402E-2	7.459952E-2	3.164702E-2
10/19/2017  17:25:32.153424	-2.536030E-1	1.319332E-2	1.137250E-2	-1.013887E+1	2.732853E-2	1.946206E-2	6.951371E-2	3.164702E-2
10/19/2017  17:25:32.154424	-2.230990E-1	2.336868E-2	1.391770E-2	-1.014142E+1	3.752832E-2	2.709402E-2	7.205661E-2	2.147136E-2
10/19/2017  17:25:32.155424	-1.163351E-1	2.591253E-2	1.900811E-2	-1.014396E+1	2.732853E-2	2.709402E-2	7.459952E-2	2.655919E-2
10/19/2017  17:25:32.156424	5.397873E-2	2.082484E-2	2.409852E-2	-1.013887E+1	2.222863E-2	4.235793E-2	7.459952E-2	3.164702E-2
10/19/2017  17:25:32.157424	-1.719720E-2	4.117557E-2	2.409852E-2	-1.013887E+1	1.202884E-2	2.200605E-2	8.222822E-2	3.164702E-2
10/19/2017  17:25:32.158424	1.027564E+0	1.319332E-2	2.155331E-2	-1.012869E+1	1.202884E-2	6.742135E-3	8.477112E-2	3.673486E-2
								
10/19/2017  17:25:32.159424	3.768124E-1	4.741205E-4	2.155331E-2	-1.014905E+1	2.732853E-2	1.946206E-2	7.714242E-2	3.927877E-2
10/19/2017  17:25:32.160424	-1.849691E-1	8.105642E-3	1.900811E-2	-1.012869E+1	2.222863E-2	1.691808E-2	7.459952E-2	4.182269E-2
10/19/2017  17:25:32.161424	-3.857869E-1	-2.069720E-3	1.391770E-2	-1.012869E+1	1.202884E-2	1.691808E-2	7.205661E-2	3.419094E-2
10/19/2017  17:25:32.162424	-6.295316E-2	1.064948E-2	1.391770E-2	-1.013123E+1	2.732853E-2	1.946206E-2	6.951371E-2	3.164702E-2
10/19/2017  17:25:32.163424	3.259725E-1	1.573716E-2	1.137250E-2	-1.013887E+1	4.262821E-2	2.200605E-2	7.459952E-2	3.164702E-2
10/19/2017  17:25:32.164424	6.564322E-1	1.319332E-2	1.391770E-2	-1.013887E+1	2.222863E-2	1.946206E-2	7.459952E-2	3.419094E-2
10/19/2017  17:25:32.165424	5.318743E-1	2.082484E-2	2.155331E-2	-1.014396E+1	1.457878E-2	2.709402E-2	6.697081E-2	2.401527E-2
10/19/2017  17:25:32.166424	2.192086E-1	2.082484E-2	1.900811E-2	-1.013632E+1	1.202884E-2	2.963800E-2	7.968532E-2	2.401527E-2
10/19/2017  17:25:32.167424	1.378647E-1	1.319332E-2	2.155331E-2	-1.013123E+1	2.477858E-2	1.946206E-2	8.222822E-2	3.164702E-2
10/19/2017  17:25:32.168424	-1.748011E-1	1.319332E-2	1.900811E-2	-1.013632E+1	1.457878E-2	1.946206E-2	7.968532E-2	3.164702E-2
10/19/2017  17:25:32.169424	-3.499119E-2	1.064948E-2	2.664372E-2	-1.012614E+1	1.712873E-2	1.691808E-2	8.222822E-2	4.182269E-2
10/19/2017  17:25:32.170424	9.210870E-2	8.105642E-3	1.900811E-2	-1.013632E+1	2.222863E-2	1.946206E-2	7.205661E-2	4.182269E-2
10/19/2017  17:25:32.171424	7.148981E-1	1.573716E-2	1.137250E-2	-1.012359E+1	1.967868E-2	1.183011E-2	7.714242E-2	3.927877E-2
10/19/2017  17:25:32.172424	6.284702E-1	8.105642E-3	1.646291E-2	-1.014142E+1	2.987847E-2	6.742135E-3	7.205661E-2	3.927877E-2
10/19/2017  17:25:32.173424	6.923072E-2	2.082484E-2	1.391770E-2	-1.012869E+1	2.732853E-2	1.946206E-2	6.951371E-2	3.164702E-2
10/19/2017  17:25:32.174424	-4.261718E-2	1.064948E-2	1.391770E-2	-1.013887E+1	2.732853E-2	1.946206E-2	6.442791E-2	2.910311E-2
10/19/2017  17:25:32.175424	-6.041116E-2	1.573716E-2	1.900811E-2	-1.014142E+1	2.477858E-2	3.218199E-2	7.459952E-2	2.401527E-2
10/19/2017  17:25:32.176424	9.719269E-2	2.591253E-2	2.664372E-2	-1.014142E+1	2.222863E-2	2.963800E-2	8.222822E-2	2.910311E-2
10/19/2017  17:25:32.177424	1.480326E-1	1.064948E-2	2.155331E-2	-1.013378E+1	2.732853E-2	1.946206E-2	7.205661E-2	2.910311E-2
10/19/2017  17:25:32.178424	-1.392131E-1	1.319332E-2	2.664372E-2	-1.014142E+1	1.967868E-2	2.200605E-2	8.985693E-2	3.164702E-2
10/19/2017  17:25:32.179424	-8.583114E-2	1.828100E-2	4.191494E-2	-1.013887E+1	1.457878E-2	2.963800E-2	8.222822E-2	3.419094E-2
10/19/2017  17:25:32.180424	-3.753318E-2	3.017961E-3	2.409852E-2	-1.012869E+1	1.457878E-2	1.691808E-2	8.477112E-2	3.673486E-2
10/19/2017  17:25:32.181424	-1.875110E-1	8.105642E-3	6.282096E-3	-1.013123E+1	1.457878E-2	4.198150E-3	7.459952E-2	3.419094E-2
10/19/2017  17:25:32.182424	-1.315871E-1	2.591253E-2	1.900811E-2	-1.013632E+1	2.222863E-2	2.200605E-2	7.459952E-2	3.164702E-2
10/19/2017  17:25:32.183424	-1.925950E-1	1.573716E-2	1.137250E-2	-1.013887E+1	3.752832E-2	3.726996E-2	7.205661E-2	3.927877E-2
10/19/2017  17:25:32.184424	-2.459770E-1	1.828100E-2	1.137250E-2	-1.014396E+1	2.732853E-2	2.200605E-2	6.951371E-2	2.401527E-2
10/19/2017  17:25:32.185424	-5.688107E-1	2.336868E-2	8.827299E-3	-1.013887E+1	2.987847E-2	3.218199E-2	6.697081E-2	2.655919E-2
10/19/2017  17:25:32.186424	-1.219562E+0	2.845637E-2	1.900811E-2	-1.013632E+1	2.222863E-2	2.709402E-2	7.714242E-2	2.401527E-2
10/19/2017  17:25:32.187424	-3.629089E-1	1.828100E-2	1.900811E-2	-1.014651E+1	2.477858E-2	2.455003E-2	7.459952E-2	2.910311E-2
10/19/2017  17:25:32.188424	1.139412E+0	2.082484E-2	1.646291E-2	-1.014142E+1	1.202884E-2	2.455003E-2	7.205661E-2	3.673486E-2
10/19/2017  17:25:32.189424	1.424115E+0	1.573716E-2	2.664372E-2	-1.013123E+1	1.457878E-2	2.200605E-2	8.222822E-2	3.164702E-2
10/19/2017  17:25:32.190424	5.572943E-1	1.319332E-2	2.155331E-2	-1.013123E+1	2.477858E-2	1.691808E-2	8.477112E-2	2.910311E-2
10/19/2017  17:25:32.191424	3.132625E-1	1.064948E-2	2.155331E-2	-1.013632E+1	1.457878E-2	1.691808E-2	8.222822E-2	3.673486E-2
								
10/19/2017  17:25:32.192424	3.158045E-1	1.064948E-2	2.155331E-2	-1.013887E+1	2.477858E-2	2.200605E-2	8.222822E-2	4.436661E-2
10/19/2017  17:25:32.193424	-3.984969E-1	1.064948E-2	2.409852E-2	-1.013887E+1	2.222863E-2	1.691808E-2	7.459952E-2	2.910311E-2
10/19/2017  17:25:32.194424	-5.332227E-1	1.064948E-2	1.391770E-2	-1.013378E+1	2.222863E-2	1.183011E-2	7.459952E-2	2.910311E-2
10/19/2017  17:25:32.195424	1.429487E-1	8.105642E-3	1.137250E-2	-1.013887E+1	2.477858E-2	2.200605E-2	7.205661E-2	3.164702E-2
10/19/2017  17:25:32.196424	3.259725E-1	1.319332E-2	1.137250E-2	-1.013632E+1	2.987847E-2	1.946206E-2	6.697081E-2	4.182269E-2
10/19/2017  17:25:32.197424	5.906273E-2	1.319332E-2	1.900811E-2	-1.011850E+1	2.222863E-2	2.963800E-2	7.459952E-2	2.401527E-2
10/19/2017  17:25:32.198424	4.327364E-1	1.573716E-2	1.646291E-2	-1.014142E+1	1.967868E-2	3.218199E-2	7.459952E-2	1.129569E-2
10/19/2017  17:25:32.199424	6.160473E-2	2.082484E-2	2.918892E-2	-1.014905E+1	1.202884E-2	2.709402E-2	7.714242E-2	2.910311E-2
10/19/2017  17:25:32.200424	-5.786917E-2	1.573716E-2	2.664372E-2	-1.013632E+1	2.477858E-2	2.200605E-2	7.459952E-2	2.910311E-2
10/19/2017  17:25:32.201424	-1.265031E-1	1.064948E-2	2.664372E-2	-1.013887E+1	1.202884E-2	1.946206E-2	7.714242E-2	3.164702E-2
10/19/2017  17:25:32.202424	-4.007518E-2	1.064948E-2	2.155331E-2	-1.013632E+1	2.222863E-2	2.455003E-2	7.459952E-2	3.927877E-2
10/19/2017  17:25:32.203424	1.658266E-1	1.828100E-2	2.155331E-2	-1.012869E+1	1.712873E-2	1.946206E-2	7.459952E-2	3.927877E-2
10/19/2017  17:25:32.204424	2.547966E-1	1.573716E-2	8.827299E-3	-1.012614E+1	2.732853E-2	9.286120E-3	7.205661E-2	3.164702E-2
10/19/2017  17:25:32.205424	2.624225E-1	1.828100E-2	1.137250E-2	-1.013378E+1	2.987847E-2	2.455003E-2	7.205661E-2	3.419094E-2
10/19/2017  17:25:32.206424	-3.095269E-1	1.573716E-2	2.155331E-2	-1.013632E+1	2.477858E-2	2.709402E-2	6.951371E-2	3.419094E-2
10/19/2017  17:25:32.207424	-9.984083E-1	1.573716E-2	2.155331E-2	-1.014142E+1	1.712873E-2	2.963800E-2	7.459952E-2	2.147136E-2
10/19/2017  17:25:32.208424	-1.143302E+0	1.573716E-2	1.137250E-2	-1.014396E+1	1.967868E-2	2.455003E-2	7.459952E-2	3.673486E-2
10/19/2017  17:25:32.209424	-1.372082E+0	2.336868E-2	2.155331E-2	-1.013378E+1	2.222863E-2	2.200605E-2	8.477112E-2	3.164702E-2
10/19/2017  17:25:32.210424	1.040274E+0	1.573716E-2	1.646291E-2	-1.013887E+1	1.712873E-2	2.963800E-2	7.714242E-2	3.164702E-2
10/19/2017  17:25:32.211424	1.490207E+0	8.105642E-3	1.900811E-2	-1.013123E+1	2.477858E-2	1.437409E-2	7.459952E-2	4.182269E-2
10/19/2017  17:25:32.212424	1.429487E-1	8.105642E-3	1.900811E-2	-1.012614E+1	2.732853E-2	2.963800E-2	7.205661E-2	3.927877E-2
10/19/2017  17:25:32.213424	6.996461E-1	4.741205E-4	1.900811E-2	-1.013123E+1	2.732853E-2	2.200605E-2	7.714242E-2	2.910311E-2
10/19/2017  17:25:32.214424	1.446993E+0	1.573716E-2	1.137250E-2	-1.014142E+1	2.732853E-2	9.286120E-3	7.205661E-2	2.401527E-2
10/19/2017  17:25:32.215424	8.547080E-1	5.561801E-3	1.646291E-2	-1.014142E+1	2.477858E-2	2.200605E-2	6.951371E-2	3.673486E-2
10/19/2017  17:25:32.216424	6.437222E-1	1.319332E-2	2.155331E-2	-1.012614E+1	2.477858E-2	2.709402E-2	7.459952E-2	3.164702E-2
10/19/2017  17:25:32.217424	-2.612290E-1	2.082484E-2	1.391770E-2	-1.013378E+1	2.477858E-2	2.963800E-2	7.205661E-2	2.147136E-2
10/19/2017  17:25:32.218424	-6.374446E-1	2.082484E-2	1.900811E-2	-1.014142E+1	2.222863E-2	1.946206E-2	7.205661E-2	3.164702E-2
10/19/2017  17:25:32.219424	-2.990719E-2	1.573716E-2	2.664372E-2	-1.013632E+1	2.987847E-2	2.200605E-2	8.731403E-2	3.673486E-2
10/19/2017  17:25:32.220424	-2.228120E-2	1.828100E-2	1.900811E-2	-1.013887E+1	1.457878E-2	1.946206E-2	7.968532E-2	3.164702E-2
10/19/2017  17:25:32.221424	-7.057916E-2	8.105642E-3	2.409852E-2	-1.012869E+1	9.478889E-3	1.691808E-2	6.951371E-2	3.927877E-2
10/19/2017  17:25:32.222424	-5.786917E-2	1.573716E-2	1.137250E-2	-1.013378E+1	2.732853E-2	1.183011E-2	7.205661E-2	3.927877E-2
10/19/2017  17:25:32.223424	-1.061671E-1	1.828100E-2	1.137250E-2	-1.013378E+1	2.987847E-2	2.200605E-2	7.205661E-2	4.182269E-2
10/19/2017  17:25:32.224424	2.093276E-2	2.082484E-2	1.137250E-2	-1.014905E+1	1.712873E-2	2.455003E-2	7.205661E-2	2.401527E-2
								
10/19/2017  17:25:32.225424	2.093276E-2	1.828100E-2	2.664372E-2	-1.014396E+1	2.222863E-2	2.455003E-2	8.222822E-2	1.638352E-2
10/19/2017  17:25:32.226424	5.680776E-3	1.319332E-2	2.664372E-2	-1.013378E+1	1.457878E-2	2.709402E-2	8.731403E-2	2.655919E-2
10/19/2017  17:25:32.227424	2.601676E-2	8.105642E-3	1.391770E-2	-1.013123E+1	1.712873E-2	1.183011E-2	7.459952E-2	2.655919E-2
10/19/2017  17:25:32.228424	2.093276E-2	1.064948E-2	1.137250E-2	-1.014396E+1	2.732853E-2	9.286120E-3	7.205661E-2	3.673486E-2
10/19/2017  17:25:32.229424	-1.214191E-1	1.573716E-2	1.900811E-2	-1.014905E+1	2.732853E-2	2.709402E-2	6.697081E-2	2.147136E-2
10/19/2017  17:25:32.230424	-4.544208E-1	1.319332E-2	2.155331E-2	-1.013123E+1	2.477858E-2	2.455003E-2	6.697081E-2	2.655919E-2
10/19/2017  17:25:32.231424	-5.942307E-1	3.017961E-3	3.736893E-3	-1.013632E+1	1.712873E-2	2.709402E-2	7.714242E-2	3.164702E-2
10/19/2017  17:25:32.232424	-6.298186E-1	1.319332E-2	2.409852E-2	-1.013887E+1	1.712873E-2	1.946206E-2	8.731403E-2	3.164702E-2
10/19/2017  17:25:32.233424	6.157602E-1	1.828100E-2	3.173413E-2	-1.013123E+1	1.967868E-2	1.437409E-2	8.222822E-2	3.673486E-2
10/19/2017  17:25:32.234424	5.522103E-1	8.105642E-3	1.391770E-2	-1.013632E+1	2.732853E-2	1.183011E-2	5.934210E-2	3.927877E-2
10/19/2017  17:25:32.235424	9.919759E-1	1.573716E-2	8.827299E-3	-1.013887E+1	1.967868E-2	2.200605E-2	7.205661E-2	2.910311E-2
10/19/2017  17:25:32.236424	3.564765E-1	2.082484E-2	1.646291E-2	-1.013887E+1	1.967868E-2	2.709402E-2	7.968532E-2	2.401527E-2
10/19/2017  17:25:32.237424	-1.189058E+0	1.319332E-2	1.646291E-2	-1.013632E+1	2.222863E-2	1.691808E-2	7.459952E-2	3.164702E-2
10/19/2017  17:25:32.238424	-2.523607E+0	8.105642E-3	2.664372E-2	-1.014142E+1	2.477858E-2	1.946206E-2	8.222822E-2	3.164702E-2
10/19/2017  17:25:32.239424	-1.956741E+0	8.105642E-3	1.900811E-2	-1.012614E+1	2.477858E-2	3.472597E-2	7.714242E-2	3.673486E-2
10/19/2017  17:25:32.240424	-5.357647E-1	3.100021E-2	1.137250E-2	-1.012359E+1	2.477858E-2	1.183011E-2	6.951371E-2	3.164702E-2
10/19/2017  17:25:32.241424	2.046905E+0	1.319332E-2	1.137250E-2	-1.013632E+1	2.987847E-2	1.946206E-2	6.951371E-2	1.892744E-2
10/19/2017  17:25:32.242424	1.096198E+0	1.064948E-2	1.900811E-2	-1.014905E+1	2.222863E-2	2.963800E-2	7.459952E-2	3.164702E-2
10/19/2017  17:25:32.243424	1.703735E+0	1.064948E-2	2.664372E-2	-1.012869E+1	1.457878E-2	2.200605E-2	8.222822E-2	3.673486E-2
10/19/2017  17:25:32.244424	1.439367E+0	3.017961E-3	2.155331E-2	-1.013632E+1	4.378993E-3	1.437409E-2	7.968532E-2	3.927877E-2
10/19/2017  17:25:32.245424	-3.832449E-1	5.561801E-3	1.900811E-2	-1.013123E+1	1.967868E-2	1.691808E-2	7.459952E-2	3.673486E-2
10/19/2017  17:25:32.246424	3.110075E-2	1.064948E-2	1.900811E-2	-1.013632E+1	4.262821E-2	1.946206E-2	7.459952E-2	2.401527E-2
10/19/2017  17:25:32.247424	3.110075E-2	1.319332E-2	1.391770E-2	-1.014651E+1	2.987847E-2	2.455003E-2	6.697081E-2	3.164702E-2
10/19/2017  17:25:32.248424	-1.945217E-3	1.573716E-2	2.155331E-2	-1.014651E+1	9.478889E-3	2.963800E-2	6.951371E-2	3.927877E-2
10/19/2017  17:25:32.249424	1.839076E-2	1.319332E-2	3.173413E-2	-1.012614E+1	1.712873E-2	2.200605E-2	8.222822E-2	3.164702E-2
10/19/2017  17:25:32.250424	8.194071E-2	5.561801E-3	2.409852E-2	-1.013632E+1	1.457878E-2	1.437409E-2	8.477112E-2	3.927877E-2
10/19/2017  17:25:32.251424	2.649645E-1	1.064948E-2	6.282096E-3	-1.011850E+1	2.477858E-2	1.183011E-2	7.205661E-2	3.419094E-2
10/19/2017  17:25:32.252424	1.404067E-1	1.319332E-2	1.900811E-2	-1.014651E+1	2.987847E-2	2.709402E-2	7.205661E-2	3.673486E-2
10/19/2017  17:25:32.253424	8.956670E-2	2.082484E-2	2.664372E-2	-1.013632E+1	1.967868E-2	2.963800E-2	7.205661E-2	2.655919E-2
10/19/2017  17:25:32.254424	9.210870E-2	8.105642E-3	1.900811E-2	-1.013632E+1	1.202884E-2	2.455003E-2	8.222822E-2	2.147136E-2
10/19/2017  17:25:32.255424	8.956670E-2	1.319332E-2	1.900811E-2	-1.015669E+1	2.222863E-2	1.183011E-2	8.222822E-2	4.182269E-2
10/19/2017  17:25:32.256424	5.143673E-2	8.105642E-3	1.391770E-2	-1.012614E+1	2.987847E-2	1.946206E-2	6.951371E-2	3.164702E-2
10/19/2017  17:25:32.257424	1.327807E-1	1.319332E-2	1.137250E-2	-1.013378E+1	2.477858E-2	1.946206E-2	6.951371E-2	2.401527E-2
								
10/19/2017  17:25:32.258424	1.912466E-1	5.561801E-3	8.827299E-3	-1.014142E+1	1.712873E-2	2.200605E-2	7.714242E-2	2.655919E-2
10/19/2017  17:25:32.259424	1.330677E-2	2.082484E-2	1.900811E-2	-1.013632E+1	1.457878E-2	1.946206E-2	9.239983E-2	2.910311E-2
10/19/2017  17:25:32.260424	-3.753318E-2	8.105642E-3	1.646291E-2	-1.013123E+1	1.967868E-2	9.286120E-3	7.459952E-2	3.419094E-2
10/19/2017  17:25:32.261424	-8.052165E-1	5.561801E-3	1.137250E-2	-1.012869E+1	2.987847E-2	1.437409E-2	7.205661E-2	3.164702E-2
10/19/2017  17:25:32.262424	-1.137931E-1	1.828100E-2	1.900811E-2	-1.014142E+1	1.967868E-2	2.963800E-2	6.697081E-2	2.910311E-2
10/19/2017  17:25:32.263424	-6.882846E-1	2.336868E-2	2.664372E-2	-1.013887E+1	1.712873E-2	2.455003E-2	6.951371E-2	2.655919E-2
10/19/2017  17:25:32.264424	2.166666E-1	1.064948E-2	1.646291E-2	-1.013632E+1	1.457878E-2	1.183011E-2	8.222822E-2	3.164702E-2
10/19/2017  17:25:32.265424	4.149424E-1	1.319332E-2	1.900811E-2	-1.013632E+1	2.477858E-2	1.691808E-2	7.714242E-2	3.927877E-2
10/19/2017  17:25:32.266424	-4.925508E-1	1.573716E-2	1.900811E-2	-1.013632E+1	2.222863E-2	2.963800E-2	7.459952E-2	3.927877E-2
10/19/2017  17:25:32.267424	-1.247524E+0	2.845637E-2	1.646291E-2	-1.012869E+1	2.477858E-2	1.946206E-2	6.951371E-2	2.147136E-2
10/19/2017  17:25:32.268424	-2.193147E+0	2.082484E-2	1.646291E-2	-1.014142E+1	2.477858E-2	1.183011E-2	7.205661E-2	3.164702E-2
10/19/2017  17:25:32.269424	-2.040627E+0	3.100021E-2	2.409852E-2	-1.013632E+1	2.222863E-2	1.946206E-2	7.968532E-2	3.164702E-2
10/19/2017  17:25:32.270424	9.919759E-1	5.561801E-3	2.664372E-2	-1.013378E+1	1.202884E-2	6.742135E-3	7.459952E-2	3.927877E-2
10/19/2017  17:25:32.271424	9.563879E-1	-4.613560E-3	1.900811E-2	-1.013123E+1	1.202884E-2	1.691808E-2	7.205661E-2	3.673486E-2
10/19/2017  17:25:32.272424	1.815583E+0	1.573716E-2	1.391770E-2	-1.013123E+1	2.987847E-2	2.455003E-2	7.205661E-2	3.419094E-2
10/19/2017  17:25:32.273424	1.919805E+0	1.828100E-2	1.137250E-2	-1.013123E+1	4.262821E-2	2.455003E-2	7.459952E-2	1.892744E-2
10/19/2017  17:25:32.274424	2.649645E-1	2.336868E-2	1.137250E-2	-1.014396E+1	1.967868E-2	2.455003E-2	7.205661E-2	2.401527E-2
10/19/2017  17:25:32.275424	5.674623E-1	1.573716E-2	2.664372E-2	-1.013632E+1	9.478889E-3	1.946206E-2	7.714242E-2	3.164702E-2
10/19/2017  17:25:32.276424	4.073164E-1	1.319332E-2	2.409852E-2	-1.013123E+1	1.712873E-2	1.946206E-2	8.222822E-2	3.927877E-2
10/19/2017  17:25:32.277424	3.437665E-1	8.105642E-3	1.391770E-2	-1.012869E+1	1.712873E-2	1.437409E-2	6.442791E-2	3.164702E-2
10/19/2017  17:25:32.278424	3.691864E-1	1.573716E-2	1.137250E-2	-1.013632E+1	2.987847E-2	1.946206E-2	7.205661E-2	2.147136E-2
10/19/2017  17:25:32.279424	3.335985E-1	1.319332E-2	1.137250E-2	-1.013887E+1	3.242842E-2	2.963800E-2	6.951371E-2	3.419094E-2
10/19/2017  17:25:32.280424	3.158045E-1	1.828100E-2	1.900811E-2	-1.014142E+1	2.477858E-2	1.691808E-2	7.459952E-2	3.419094E-2
10/19/2017  17:25:32.281424	3.107205E-1	1.064948E-2	2.155331E-2	-1.013378E+1	1.202884E-2	1.946206E-2	8.222822E-2	4.182269E-2
10/19/2017  17:25:32.282424	3.005525E-1	1.319332E-2	1.900811E-2	-1.012614E+1	2.477858E-2	1.437409E-2	7.968532E-2	3.673486E-2
10/19/2017  17:25:32.283424	2.192086E-1	2.082484E-2	1.900811E-2	-1.014142E+1	3.242842E-2	1.946206E-2	6.697081E-2	3.164702E-2
10/19/2017  17:25:32.284424	2.242926E-1	1.573716E-2	1.900811E-2	-1.013632E+1	2.222863E-2	2.455003E-2	6.697081E-2	2.401527E-2
10/19/2017  17:25:32.285424	1.861626E-1	1.573716E-2	1.137250E-2	-1.013632E+1	1.967868E-2	2.455003E-2	7.205661E-2	3.164702E-2
10/19/2017  17:25:32.286424	1.556586E-1	1.573716E-2	2.664372E-2	-1.013632E+1	1.712873E-2	2.200605E-2	6.697081E-2	2.910311E-2
10/19/2017  17:25:32.287424	1.378647E-1	5.561801E-3	8.827299E-3	-1.013632E+1	1.967868E-2	9.286120E-3	7.459952E-2	3.419094E-2
10/19/2017  17:25:32.288424	1.454906E-1	3.017961E-3	1.137250E-2	-1.013123E+1	2.987847E-2	1.946206E-2	6.951371E-2	3.164702E-2
10/19/2017  17:25:32.289424	1.454906E-1	2.082484E-2	1.900811E-2	-1.014396E+1	2.477858E-2	2.963800E-2	7.205661E-2	3.164702E-2
10/19/2017  17:25:32.290424	1.048187E-1	2.336868E-2	1.900811E-2	-1.013887E+1	2.222863E-2	2.963800E-2	7.714242E-2	2.401527E-2
								
10/19/2017  17:25:32.291424	1.175287E-1	1.828100E-2	1.391770E-2	-1.013887E+1	6.928941E-3	9.286120E-3	8.222822E-2	2.655919E-2
10/19/2017  17:25:32.292424	1.124447E-1	4.741205E-4	1.900811E-2	-1.014142E+1	2.477858E-2	2.200605E-2	7.459952E-2	2.910311E-2
10/19/2017  17:25:32.293424	2.344606E-1	8.105642E-3	1.900811E-2	-1.012869E+1	2.477858E-2	2.709402E-2	7.459952E-2	2.910311E-2
10/19/2017  17:25:32.294424	2.420866E-1	5.561801E-3	1.646291E-2	-1.013632E+1	2.477858E-2	1.946206E-2	6.951371E-2	3.164702E-2
10/19/2017  17:25:32.295424	3.310565E-1	1.828100E-2	1.900811E-2	-1.013887E+1	2.222863E-2	4.235793E-2	7.714242E-2	2.147136E-2
10/19/2017  17:25:32.296424	4.276524E-1	2.336868E-2	1.646291E-2	-1.013378E+1	3.242842E-2	2.200605E-2	8.222822E-2	2.910311E-2
10/19/2017  17:25:32.297424	3.920644E-1	1.319332E-2	2.918892E-2	-1.013632E+1	1.712873E-2	-8.898203E-4	7.968532E-2	3.164702E-2
10/19/2017  17:25:32.298424	6.183022E-1	-9.701241E-3	1.900811E-2	-1.013378E+1	1.202884E-2	1.946206E-2	7.205661E-2	3.419094E-2
10/19/2017  17:25:32.299424	2.497126E-1	1.319332E-2	1.391770E-2	-1.012869E+1	2.477858E-2	1.946206E-2	7.459952E-2	2.910311E-2
10/19/2017  17:25:32.300424	-1.628824E+0	2.082484E-2	1.646291E-2	-1.013632E+1	4.262821E-2	2.709402E-2	7.205661E-2	2.147136E-2
10/19/2017  17:25:32.301424	-1.084836E+0	1.828100E-2	2.409852E-2	-1.014396E+1	1.967868E-2	2.709402E-2	6.951371E-2	2.401527E-2
10/19/2017  17:25:32.302424	-1.077210E+0	1.319332E-2	2.409852E-2	-1.013887E+1	2.222863E-2	1.946206E-2	8.222822E-2	3.673486E-2
10/19/2017  17:25:32.303424	5.496683E-1	1.064948E-2	2.409852E-2	-1.013123E+1	1.712873E-2	1.691808E-2	8.222822E-2	3.927877E-2
10/19/2017  17:25:32.304424	8.750440E-1	1.064948E-2	1.137250E-2	-1.013123E+1	9.478889E-3	1.437409E-2	6.697081E-2	3.164702E-2
10/19/2017  17:25:32.305424	1.251260E+0	1.319332E-2	8.827299E-3	-1.013123E+1	2.987847E-2	1.946206E-2	6.951371E-2	2.910311E-2
10/19/2017  17:25:32.306424	8.394560E-1	2.082484E-2	2.155331E-2	-1.013632E+1	2.477858E-2	2.963800E-2	7.968532E-2	3.673486E-2
10/19/2017  17:25:32.307424	5.877982E-1	1.064948E-2	3.173413E-2	-1.013123E+1	1.712873E-2	2.200605E-2	7.714242E-2	3.164702E-2
10/19/2017  17:25:32.308424	-1.214191E-1	8.105642E-3	1.900811E-2	-1.013378E+1	2.477858E-2	1.946206E-2	7.714242E-2	3.164702E-2
10/19/2017  17:25:32.309424	8.702470E-2	1.064948E-2	1.900811E-2	-1.014142E+1	2.477858E-2	1.437409E-2	7.205661E-2	3.927877E-2
10/19/2017  17:25:32.310424	-3.756189E-1	2.082484E-2	1.137250E-2	-1.013123E+1	2.987847E-2	1.946206E-2	6.951371E-2	2.910311E-2
10/19/2017  17:25:32.311424	-4.925508E-1	1.064948E-2	1.900811E-2	-1.013887E+1	2.222863E-2	2.963800E-2	7.714242E-2	2.655919E-2
10/19/2017  17:25:32.312424	-3.934129E-1	1.828100E-2	2.155331E-2	-1.013632E+1	1.967868E-2	1.946206E-2	7.459952E-2	3.164702E-2
10/19/2017  17:25:32.313424	-1.697171E-1	1.319332E-2	2.664372E-2	-1.013632E+1	1.202884E-2	2.200605E-2	8.222822E-2	3.164702E-2
10/19/2017  17:25:32.314424	1.861626E-1	4.741205E-4	2.409852E-2	-1.012869E+1	2.222863E-2	1.946206E-2	7.714242E-2	3.164702E-2
10/19/2017  17:25:32.315424	-3.349469E-1	5.561801E-3	1.900811E-2	-1.012869E+1	2.222863E-2	2.200605E-2	6.697081E-2	3.164702E-2
10/19/2017  17:25:32.316424	-4.671308E-1	1.573716E-2	2.155331E-2	-1.013378E+1	3.497837E-2	3.218199E-2	6.697081E-2	2.147136E-2
10/19/2017  17:25:32.317424	3.030945E-1	2.082484E-2	1.900811E-2	-1.013887E+1	2.222863E-2	2.455003E-2	7.714242E-2	2.147136E-2
10/19/2017  17:25:32.318424	7.072721E-1	1.319332E-2	1.391770E-2	-1.013378E+1	9.478889E-3	9.286120E-3	8.222822E-2	2.910311E-2
10/19/2017  17:25:32.319424	1.632846E-1	1.828100E-2	2.664372E-2	-1.012869E+1	1.457878E-2	1.691808E-2	8.222822E-2	3.927877E-2
10/19/2017  17:25:32.320424	-1.110256E+0	8.105642E-3	1.900811E-2	-1.012869E+1	2.477858E-2	2.200605E-2	6.951371E-2	4.436661E-2
10/19/2017  17:25:32.321424	-1.542396E+0	5.561801E-3	1.391770E-2	-1.013378E+1	2.222863E-2	2.455003E-2	6.951371E-2	3.673486E-2
10/19/2017  17:25:32.322424	-8.941864E-1	2.082484E-2	1.900811E-2	-1.014651E+1	2.222863E-2	2.709402E-2	7.459952E-2	2.147136E-2
10/19/2017  17:25:32.323424	2.319186E-1	1.828100E-2	2.155331E-2	-1.015415E+1	1.967868E-2	2.709402E-2	8.731403E-2	3.164702E-2
								
10/19/2017  17:25:32.324424	-1.951370E-1	1.064948E-2	2.664372E-2	-1.013632E+1	1.457878E-2	2.455003E-2	8.222822E-2	3.164702E-2
10/19/2017  17:25:32.325424	5.089963E-1	3.017961E-3	1.900811E-2	-1.013123E+1	9.478889E-3	1.437409E-2	7.205661E-2	3.419094E-2
10/19/2017  17:25:32.326424	5.496683E-1	1.064948E-2	1.646291E-2	-1.013632E+1	2.987847E-2	2.455003E-2	6.951371E-2	3.419094E-2
10/19/2017  17:25:32.327424	-2.281830E-1	1.064948E-2	1.137250E-2	-1.014142E+1	4.262821E-2	2.709402E-2	7.714242E-2	2.147136E-2
10/19/2017  17:25:32.328424	5.369583E-1	1.828100E-2	1.646291E-2	-1.014651E+1	2.222863E-2	2.709402E-2	7.714242E-2	3.164702E-2
10/19/2017  17:25:32.329424	1.309726E+0	1.319332E-2	2.409852E-2	-1.013378E+1	3.497837E-2	1.946206E-2	8.222822E-2	3.673486E-2
10/19/2017  17:25:32.330424	1.065694E+0	1.064948E-2	2.918892E-2	-1.013887E+1	1.457878E-2	1.946206E-2	8.222822E-2	3.673486E-2
10/19/2017  17:25:32.331424	-5.637267E-1	8.105642E-3	1.646291E-2	-1.012869E+1	1.967868E-2	1.437409E-2	7.714242E-2	3.164702E-2
10/19/2017  17:25:32.332424	-7.314986E-1	1.064948E-2	1.137250E-2	-1.013887E+1	2.987847E-2	2.200605E-2	7.205661E-2	2.910311E-2
10/19/2017  17:25:32.333424	-1.976790E-1	1.319332E-2	1.900811E-2	-1.013632E+1	1.967868E-2	2.455003E-2	8.731403E-2	3.927877E-2
10/19/2017  17:25:32.334424	-7.820515E-2	1.319332E-2	2.409852E-2	-1.012869E+1	2.222863E-2	3.218199E-2	7.714242E-2	3.419094E-2
10/19/2017  17:25:32.335424	4.886603E-1	8.105642E-3	2.664372E-2	-1.013887E+1	1.457878E-2	2.455003E-2	8.222822E-2	2.655919E-2
10/19/2017  17:25:32.336424	-1.925950E-1	1.064948E-2	2.664372E-2	-1.012614E+1	1.712873E-2	1.946206E-2	7.459952E-2	3.927877E-2
10/19/2017  17:25:32.337424	-3.298629E-1	1.319332E-2	1.391770E-2	-1.013378E+1	2.477858E-2	1.183011E-2	7.459952E-2	2.147136E-2
10/19/2017  17:25:32.338424	-2.891910E-1	1.064948E-2	1.391770E-2	-1.015669E+1	2.732853E-2	1.183011E-2	6.188501E-2	3.164702E-2
10/19/2017  17:25:32.339424	1.759946E-1	2.082484E-2	2.409852E-2	-1.014396E+1	2.222863E-2	2.963800E-2	7.205661E-2	2.910311E-2
10/19/2017  17:25:32.340424	5.725463E-1	1.573716E-2	1.900811E-2	-1.014142E+1	1.457878E-2	2.455003E-2	8.731403E-2	3.164702E-2
10/19/2017  17:25:32.341424	1.108908E+0	1.319332E-2	1.137250E-2	-1.013887E+1	1.712873E-2	1.691808E-2	7.714242E-2	3.164702E-2
10/19/2017  17:25:32.342424	7.886161E-1	8.105642E-3	1.646291E-2	-1.013632E+1	2.222863E-2	1.691808E-2	8.222822E-2	3.673486E-2
10/19/2017  17:25:32.343424	7.685671E-2	2.591253E-2	2.409852E-2	-1.013887E+1	3.242842E-2	2.455003E-2	6.697081E-2	3.419094E-2
10/19/2017  17:25:32.344424	4.378204E-1	1.828100E-2	1.137250E-2	-1.014142E+1	2.477858E-2	2.963800E-2	6.951371E-2	2.401527E-2
10/19/2017  17:25:32.345424	-2.228120E-2	2.082484E-2	2.155331E-2	-1.014396E+1	1.712873E-2	3.218199E-2	7.714242E-2	2.401527E-2
10/19/2017  17:25:32.346424	-1.849691E-1	1.828100E-2	1.900811E-2	-1.013632E+1	2.477858E-2	1.946206E-2	7.205661E-2	3.164702E-2
10/19/2017  17:25:32.347424	3.691864E-1	1.573716E-2	2.409852E-2	-1.014142E+1	1.457878E-2	2.200605E-2	8.222822E-2	3.419094E-2
10/19/2017  17:25:32.348424	3.717284E-1	-2.069720E-3	1.900811E-2	-1.013632E+1	1.712873E-2	1.183011E-2	7.714242E-2	3.673486E-2
10/19/2017  17:25:32.349424	3.138778E-3	8.105642E-3	1.391770E-2	-1.013632E+1	3.497837E-2	9.286120E-3	7.205661E-2	3.673486E-2
10/19/2017  17:25:32.350424	-4.366268E-1	2.845637E-2	1.137250E-2	-1.014396E+1	3.497837E-2	2.200605E-2	6.951371E-2	2.147136E-2
10/19/2017  17:25:32.351424	-6.959106E-1	1.828100E-2	1.900811E-2	-1.013632E+1	1.967868E-2	1.691808E-2	7.714242E-2	1.892744E-2
10/19/2017  17:25:32.352424	-4.366268E-1	1.319332E-2	2.155331E-2	-1.014905E+1	2.477858E-2	2.709402E-2	7.459952E-2	3.164702E-2
10/19/2017  17:25:32.353424	1.126702E+0	1.828100E-2	2.664372E-2	-1.014142E+1	1.712873E-2	2.200605E-2	8.222822E-2	3.927877E-2
10/19/2017  17:25:32.354424	1.086030E+0	1.573716E-2	1.900811E-2	-1.013123E+1	1.457878E-2	1.946206E-2	7.205661E-2	3.419094E-2
10/19/2017  17:25:32.355424	5.725463E-1	1.573716E-2	1.391770E-2	-1.013378E+1	2.222863E-2	2.455003E-2	7.714242E-2	3.419094E-2
10/19/2017  17:25:32.356424	-6.549516E-2	1.319332E-2	1.391770E-2	-1.013378E+1	4.772811E-2	2.200605E-2	7.205661E-2	3.927877E-2
								
10/19/2017  17:25:32.357424	-2.688550E-1	1.573716E-2	1.900811E-2	-1.012869E+1	2.222863E-2	2.200605E-2	6.951371E-2	2.401527E-2
10/19/2017  17:25:32.358424	7.301501E-1	1.319332E-2	1.646291E-2	-1.014142E+1	1.967868E-2	2.200605E-2	7.205661E-2	3.419094E-2
10/19/2017  17:25:32.359424	3.437665E-1	1.319332E-2	3.173413E-2	-1.013378E+1	1.457878E-2	2.709402E-2	8.222822E-2	3.164702E-2
10/19/2017  17:25:32.360424	-3.171529E-1	3.017961E-3	2.918892E-2	-1.012869E+1	1.457878E-2	1.691808E-2	8.222822E-2	3.419094E-2
10/19/2017  17:25:32.361424	-5.179708E-1	1.064948E-2	1.391770E-2	-1.014396E+1	2.222863E-2	1.437409E-2	7.714242E-2	4.182269E-2
10/19/2017  17:25:32.362424	-5.662687E-1	8.105642E-3	1.391770E-2	-1.014142E+1	3.242842E-2	2.455003E-2	6.951371E-2	4.436661E-2
10/19/2017  17:25:32.363424	-1.748011E-1	2.082484E-2	1.391770E-2	-1.013887E+1	2.987847E-2	3.218199E-2	7.205661E-2	2.910311E-2
10/19/2017  17:25:32.364424	3.717284E-1	2.082484E-2	1.137250E-2	-1.014651E+1	2.222863E-2	2.455003E-2	7.459952E-2	2.147136E-2
10/19/2017  17:25:32.365424	1.099027E-1	1.319332E-2	1.646291E-2	-1.014651E+1	2.222863E-2	1.691808E-2	6.697081E-2	3.164702E-2
10/19/2017  17:25:32.366424	-1.465521E-2	1.573716E-2	3.173413E-2	-1.013887E+1	1.967868E-2	2.200605E-2	8.222822E-2	3.419094E-2
10/19/2017  17:25:32.367424	3.364275E-2	5.561801E-3	2.155331E-2	-1.013123E+1	2.222863E-2	2.455003E-2	7.968532E-2	3.673486E-2
10/19/2017  17:25:32.368424	1.099027E-1	8.105642E-3	3.736893E-3	-1.013378E+1	2.477858E-2	1.946206E-2	6.951371E-2	3.164702E-2
10/19/2017  17:25:32.369424	8.702470E-2	1.573716E-2	1.646291E-2	-1.013378E+1	1.967868E-2	2.455003E-2	7.968532E-2	2.401527E-2
10/19/2017  17:25:32.370424	4.381074E-2	2.591253E-2	1.900811E-2	-1.014142E+1	2.222863E-2	2.455003E-2	7.459952E-2	2.655919E-2
10/19/2017  17:25:32.371424	2.093276E-2	1.319332E-2	2.664372E-2	-1.013632E+1	1.457878E-2	1.946206E-2	7.205661E-2	3.164702E-2
10/19/2017  17:25:32.372424	3.110075E-2	1.064948E-2	8.827299E-3	-1.013123E+1	6.928941E-3	2.455003E-2	8.222822E-2	3.927877E-2
10/19/2017  17:25:32.373424	5.906273E-2	1.319332E-2	1.900811E-2	-1.013887E+1	2.477858E-2	1.946206E-2	8.222822E-2	2.910311E-2
10/19/2017  17:25:32.374424	4.126874E-2	1.319332E-2	1.137250E-2	-1.013887E+1	2.987847E-2	1.437409E-2	6.951371E-2	3.164702E-2
10/19/2017  17:25:32.375424	4.381074E-2	1.828100E-2	1.137250E-2	-1.014651E+1	2.222863E-2	2.709402E-2	6.697081E-2	2.910311E-2
10/19/2017  17:25:32.376424	5.652073E-2	2.082484E-2	2.155331E-2	-1.013887E+1	2.477858E-2	2.963800E-2	7.714242E-2	2.655919E-2
10/19/2017  17:25:32.377424	9.973469E-2	5.561801E-3	2.664372E-2	-1.013887E+1	1.202884E-2	1.946206E-2	7.968532E-2	2.655919E-2
10/19/2017  17:25:32.378424	1.327807E-1	1.064948E-2	1.900811E-2	-1.013887E+1	1.967868E-2	9.286120E-3	7.459952E-2	3.164702E-2
10/19/2017  17:25:32.379424	1.378647E-1	1.573716E-2	2.155331E-2	-1.012614E+1	3.242842E-2	1.183011E-2	7.714242E-2	2.910311E-2
10/19/2017  17:25:32.380424	7.177272E-2	1.573716E-2	1.391770E-2	-1.013632E+1	2.732853E-2	2.200605E-2	6.951371E-2	3.673486E-2
10/19/2017  17:25:32.381424	-8.837314E-2	5.561801E-3	1.900811E-2	-1.014651E+1	1.457878E-2	2.963800E-2	7.205661E-2	2.147136E-2
10/19/2017  17:25:32.382424	1.226127E-1	2.082484E-2	2.918892E-2	-1.014651E+1	1.202884E-2	2.200605E-2	8.222822E-2	2.655919E-2
10/19/2017  17:25:32.383424	1.149867E-1	1.064948E-2	2.918892E-2	-1.013632E+1	3.242842E-2	1.946206E-2	8.731403E-2	3.927877E-2
10/19/2017  17:25:32.384424	1.302387E-1	8.105642E-3	1.646291E-2	-1.013887E+1	2.222863E-2	1.183011E-2	7.205661E-2	3.673486E-2
10/19/2017  17:25:32.385424	6.414672E-2	1.573716E-2	1.646291E-2	-1.013123E+1	9.478889E-3	2.200605E-2	6.951371E-2	3.673486E-2
10/19/2017  17:25:32.386424	8.194071E-2	1.064948E-2	1.646291E-2	-1.012869E+1	2.732853E-2	2.455003E-2	6.951371E-2	3.164702E-2
10/19/2017  17:25:32.387424	3.869804E-1	1.828100E-2	2.155331E-2	-1.014142E+1	1.202884E-2	2.963800E-2	7.459952E-2	3.673486E-2
10/19/2017  17:25:32.388424	-2.942750E-1	2.336868E-2	1.900811E-2	-1.015415E+1	1.457878E-2	2.455003E-2	8.477112E-2	2.910311E-2
10/19/2017  17:25:32.389424	3.615605E-1	1.064948E-2	1.900811E-2	-1.013378E+1	1.457878E-2	2.709402E-2	8.477112E-2	4.182269E-2
								
10/19/2017  17:25:32.390424	-7.365826E-1	5.561801E-3	2.409852E-2	-1.011341E+1	1.967868E-2	1.946206E-2	7.205661E-2	3.673486E-2
10/19/2017  17:25:32.391424	1.076477E-2	8.105642E-3	1.391770E-2	-1.013632E+1	1.967868E-2	2.200605E-2	7.459952E-2	2.147136E-2
10/19/2017  17:25:32.392424	4.937443E-1	1.319332E-2	2.155331E-2	-1.014905E+1	3.497837E-2	1.437409E-2	8.222822E-2	3.164702E-2
10/19/2017  17:25:32.393424	2.064986E-1	2.591253E-2	2.409852E-2	-1.014142E+1	2.222863E-2	2.963800E-2	7.205661E-2	2.910311E-2
10/19/2017  17:25:32.394424	7.177272E-2	1.319332E-2	2.409852E-2	-1.014905E+1	1.457878E-2	1.437409E-2	7.459952E-2	3.164702E-2
10/19/2017  17:25:32.395424	-1.798851E-1	8.105642E-3	2.409852E-2	-1.013123E+1	1.202884E-2	1.437409E-2	7.968532E-2	4.182269E-2
10/19/2017  17:25:32.396424	-1.595491E-1	1.064948E-2	1.391770E-2	-1.012614E+1	2.732853E-2	1.437409E-2	6.188501E-2	4.182269E-2
10/19/2017  17:25:32.397424	-8.328914E-2	1.064948E-2	6.282096E-3	-1.013632E+1	3.242842E-2	1.691808E-2	6.951371E-2	3.419094E-2
10/19/2017  17:25:32.398424	2.855876E-2	8.105642E-3	1.900811E-2	-1.014651E+1	2.222863E-2	2.455003E-2	6.697081E-2	2.147136E-2
10/19/2017  17:25:32.399424	7.431471E-2	1.573716E-2	1.391770E-2	-1.013632E+1	1.457878E-2	2.709402E-2	7.205661E-2	3.164702E-2
10/19/2017  17:25:32.400424	6.414672E-2	2.082484E-2	1.900811E-2	-1.013632E+1	1.712873E-2	1.946206E-2	8.477112E-2	3.164702E-2
10/19/2017  17:25:32.401424	5.397873E-2	8.105642E-3	1.900811E-2	-1.013632E+1	1.712873E-2	1.437409E-2	7.205661E-2	2.910311E-2
10/19/2017  17:25:32.402424	4.889474E-2	2.082484E-2	1.391770E-2	-1.013887E+1	3.242842E-2	2.455003E-2	7.205661E-2	3.164702E-2
10/19/2017  17:25:32.403424	-1.719720E-2	1.064948E-2	1.646291E-2	-1.013632E+1	2.477858E-2	3.472597E-2	7.714242E-2	3.164702E-2
10/19/2017  17:25:32.404424	5.652073E-2	1.064948E-2	1.900811E-2	-1.013887E+1	1.457878E-2	2.963800E-2	7.459952E-2	3.164702E-2
10/19/2017  17:25:32.405424	5.143673E-2	1.573716E-2	2.409852E-2	-1.013632E+1	1.967868E-2	1.946206E-2	8.222822E-2	2.147136E-2
10/19/2017  17:25:32.406424	2.855876E-2	2.591253E-2	2.155331E-2	-1.012359E+1	2.222863E-2	1.437409E-2	8.222822E-2	3.419094E-2
10/19/2017  17:25:32.407424	5.143673E-2	8.105642E-3	2.155331E-2	-1.012614E+1	2.222863E-2	1.946206E-2	7.459952E-2	4.182269E-2
10/19/2017  17:25:32.408424	4.635274E-2	4.741205E-4	1.391770E-2	-1.014905E+1	1.457878E-2	1.946206E-2	6.697081E-2	2.910311E-2
10/19/2017  17:25:32.409424	1.584877E-2	1.828100E-2	1.137250E-2	-1.013887E+1	2.732853E-2	2.963800E-2	6.951371E-2	2.655919E-2
10/19/2017  17:25:32.410424	3.364275E-2	2.082484E-2	1.646291E-2	-1.013887E+1	3.497837E-2	2.963800E-2	7.968532E-2	2.655919E-2
10/19/2017  17:25:32.411424	3.872675E-2	2.082484E-2	1.900811E-2	-1.013887E+1	1.457878E-2	1.946206E-2	8.477112E-2	2.910311E-2
10/19/2017  17:25:32.412424	1.226127E-1	1.319332E-2	2.918892E-2	-1.012869E+1	1.457878E-2	9.286120E-3	7.459952E-2	4.182269E-2
10/19/2017  17:25:32.413424	7.177272E-2	3.017961E-3	2.409852E-2	-1.012105E+1	2.477858E-2	1.691808E-2	7.205661E-2	3.419094E-2
10/19/2017  17:25:32.414424	-3.244919E-2	1.064948E-2	1.137250E-2	-1.012869E+1	1.967868E-2	1.437409E-2	7.205661E-2	1.892744E-2
10/19/2017  17:25:32.415424	-2.891910E-1	2.082484E-2	3.736893E-3	-1.013887E+1	2.477858E-2	2.709402E-2	6.442791E-2	2.910311E-2
10/19/2017  17:25:32.416424	-1.061671E-1	2.082484E-2	2.155331E-2	-1.013887E+1	2.222863E-2	2.963800E-2	7.459952E-2	2.910311E-2
10/19/2017  17:25:32.417424	9.465070E-2	2.336868E-2	3.427933E-2	-1.014142E+1	1.457878E-2	2.963800E-2	8.477112E-2	2.910311E-2
10/19/2017  17:25:32.418424	1.709106E-1	1.573716E-2	2.155331E-2	-1.013632E+1	2.222863E-2	2.200605E-2	7.714242E-2	3.164702E-2
10/19/2017  17:25:32.419424	2.166666E-1	1.064948E-2	2.155331E-2	-1.012869E+1	2.222863E-2	1.946206E-2	7.968532E-2	3.673486E-2
10/19/2017  17:25:32.420424	1.251547E-1	1.319332E-2	2.155331E-2	-1.013378E+1	2.477858E-2	1.946206E-2	7.714242E-2	2.910311E-2
10/19/2017  17:25:32.421424	-9.571210E-3	1.064948E-2	1.137250E-2	-1.015669E+1	2.732853E-2	1.691808E-2	5.679920E-2	2.655919E-2
10/19/2017  17:25:32.422424	2.093276E-2	1.319332E-2	1.900811E-2	-1.013887E+1	1.457878E-2	2.963800E-2	7.205661E-2	2.910311E-2
								
10/19/2017  17:25:32.423424	1.584877E-2	1.828100E-2	2.155331E-2	-1.013378E+1	2.477858E-2	2.963800E-2	8.477112E-2	2.910311E-2
10/19/2017  17:25:32.424424	3.872675E-2	1.828100E-2	1.137250E-2	-1.013887E+1	1.712873E-2	2.200605E-2	8.222822E-2	3.164702E-2
10/19/2017  17:25:32.425424	7.177272E-2	5.561801E-3	1.646291E-2	-1.013123E+1	2.222863E-2	1.691808E-2	6.951371E-2	3.673486E-2
10/19/2017  17:25:32.426424	9.973469E-2	8.105642E-3	2.409852E-2	-1.012869E+1	3.497837E-2	9.286120E-3	7.205661E-2	3.673486E-2
10/19/2017  17:25:32.427424	8.194071E-2	1.319332E-2	1.137250E-2	-1.013887E+1	2.477858E-2	1.946206E-2	6.951371E-2	2.910311E-2
10/19/2017  17:25:32.428424	7.177272E-2	1.828100E-2	1.646291E-2	-1.014142E+1	1.457878E-2	2.963800E-2	7.968532E-2	2.401527E-2
10/19/2017  17:25:32.429424	5.652073E-2	2.591253E-2	1.646291E-2	-1.014142E+1	2.732853E-2	1.946206E-2	7.714242E-2	2.910311E-2
10/19/2017  17:25:32.430424	6.414672E-2	1.319332E-2	2.664372E-2	-1.014142E+1	1.967868E-2	1.946206E-2	8.222822E-2	3.419094E-2
10/19/2017  17:25:32.431424	5.652073E-2	4.741205E-4	2.409852E-2	-1.013887E+1	1.967868E-2	2.200605E-2	7.714242E-2	2.910311E-2
10/19/2017  17:25:32.432424	4.381074E-2	8.105642E-3	1.900811E-2	-1.013632E+1	1.967868E-2	1.437409E-2	7.714242E-2	3.673486E-2
10/19/2017  17:25:32.433424	6.160473E-2	1.573716E-2	1.137250E-2	-1.013378E+1	2.987847E-2	1.183011E-2	6.697081E-2	4.182269E-2
10/19/2017  17:25:32.434424	5.906273E-2	1.319332E-2	1.137250E-2	-1.013887E+1	2.732853E-2	1.946206E-2	7.205661E-2	3.164702E-2
10/19/2017  17:25:32.435424	5.143673E-2	1.064948E-2	1.646291E-2	-1.013887E+1	2.222863E-2	2.709402E-2	7.714242E-2	2.910311E-2
10/19/2017  17:25:32.436424	4.126874E-2	1.828100E-2	1.900811E-2	-1.013887E+1	2.222863E-2	2.963800E-2	7.205661E-2	2.910311E-2
10/19/2017  17:25:32.437424	1.584877E-2	1.828100E-2	2.664372E-2	-1.013123E+1	9.478889E-3	1.946206E-2	7.968532E-2	2.655919E-2
10/19/2017  17:25:32.438424	4.126874E-2	1.828100E-2	1.646291E-2	-1.014651E+1	1.457878E-2	1.946206E-2	7.968532E-2	3.927877E-2
10/19/2017  17:25:32.439424	4.635274E-2	1.064948E-2	1.900811E-2	-1.012869E+1	2.732853E-2	1.691808E-2	7.714242E-2	4.182269E-2
10/19/2017  17:25:32.440424	6.160473E-2	1.319332E-2	1.900811E-2	-1.013378E+1	2.987847E-2	1.946206E-2	6.951371E-2	3.419094E-2
10/19/2017  17:25:32.441424	2.601676E-2	1.319332E-2	1.137250E-2	-1.014142E+1	3.242842E-2	2.709402E-2	7.968532E-2	1.383961E-2
10/19/2017  17:25:32.442424	-1.719720E-2	2.082484E-2	2.918892E-2	-1.016178E+1	1.712873E-2	2.709402E-2	7.205661E-2	2.910311E-2
10/19/2017  17:25:32.443424	-4.007518E-2	1.573716E-2	2.664372E-2	-1.013632E+1	1.457878E-2	2.455003E-2	8.731403E-2	4.182269E-2
10/19/2017  17:25:32.444424	5.967806E-4	1.319332E-2	1.391770E-2	-1.013378E+1	1.967868E-2	2.200605E-2	7.205661E-2	3.927877E-2
10/19/2017  17:25:32.445424	7.685671E-2	5.561801E-3	2.155331E-2	-1.013123E+1	2.477858E-2	1.437409E-2	7.714242E-2	4.182269E-2
10/19/2017  17:25:32.446424	1.099027E-1	1.319332E-2	1.900811E-2	-1.011850E+1	2.477858E-2	2.709402E-2	6.951371E-2	3.164702E-2
10/19/2017  17:25:32.447424	6.160473E-2	1.828100E-2	1.646291E-2	-1.013632E+1	1.712873E-2	1.946206E-2	7.968532E-2	1.638352E-2
10/19/2017  17:25:32.448424	8.956670E-2	1.573716E-2	1.900811E-2	-1.014651E+1	2.222863E-2	2.200605E-2	6.697081E-2	3.164702E-2
10/19/2017  17:25:32.449424	6.923072E-2	1.064948E-2	2.918892E-2	-1.013632E+1	1.712873E-2	2.455003E-2	7.205661E-2	3.673486E-2
10/19/2017  17:25:32.450424	5.397873E-2	1.064948E-2	1.646291E-2	-1.012869E+1	1.967868E-2	2.455003E-2	8.731403E-2	3.927877E-2
10/19/2017  17:25:32.451424	8.194071E-2	1.064948E-2	3.736893E-3	-1.012869E+1	2.222863E-2	1.691808E-2	6.951371E-2	3.164702E-2
10/19/2017  17:25:32.452424	7.177272E-2	1.064948E-2	1.137250E-2	-1.013632E+1	2.987847E-2	2.455003E-2	6.951371E-2	2.401527E-2
10/19/2017  17:25:32.453424	5.652073E-2	2.336868E-2	2.664372E-2	-1.013887E+1	2.222863E-2	2.963800E-2	7.459952E-2	2.655919E-2
10/19/2017  17:25:32.454424	8.222774E-3	2.082484E-2	2.155331E-2	-1.014142E+1	1.457878E-2	2.709402E-2	6.951371E-2	3.164702E-2
10/19/2017  17:25:32.455424	8.222774E-3	1.319332E-2	1.137250E-2	-1.012869E+1	9.478889E-3	9.286120E-3	8.477112E-2	3.927877E-2
								
10/19/2017  17:25:32.456424	-9.854113E-2	1.064948E-2	1.900811E-2	-1.014905E+1	2.477858E-2	1.946206E-2	7.714242E-2	3.927877E-2
10/19/2017  17:25:32.457424	2.192086E-1	1.573716E-2	1.900811E-2	-1.013887E+1	2.477858E-2	1.691808E-2	7.459952E-2	2.910311E-2
10/19/2017  17:25:32.458424	3.030945E-1	8.105642E-3	1.137250E-2	-1.014396E+1	1.712873E-2	2.200605E-2	7.205661E-2	2.655919E-2
10/19/2017  17:25:32.459424	3.564765E-1	2.082484E-2	1.900811E-2	-1.014396E+1	2.222863E-2	2.200605E-2	7.714242E-2	2.147136E-2
10/19/2017  17:25:32.460424	8.445400E-1	2.591253E-2	2.409852E-2	-1.014396E+1	1.457878E-2	2.963800E-2	8.477112E-2	2.910311E-2
10/19/2017  17:25:32.461424	5.064543E-1	1.319332E-2	2.409852E-2	-1.013887E+1	1.202884E-2	1.183011E-2	8.222822E-2	3.164702E-2
10/19/2017  17:25:32.462424	-3.781609E-1	4.741205E-4	1.900811E-2	-1.013887E+1	2.732853E-2	1.437409E-2	7.459952E-2	4.182269E-2
10/19/2017  17:25:32.463424	-6.120247E-1	1.064948E-2	1.137250E-2	-1.013123E+1	2.987847E-2	1.691808E-2	6.951371E-2	4.182269E-2
10/19/2017  17:25:32.464424	-2.586870E-1	1.319332E-2	1.646291E-2	-1.012869E+1	3.497837E-2	2.200605E-2	7.205661E-2	3.164702E-2
10/19/2017  17:25:32.465424	3.138778E-3	2.082484E-2	1.646291E-2	-1.013378E+1	2.222863E-2	2.455003E-2	7.459952E-2	3.419094E-2
10/19/2017  17:25:32.466424	-1.875110E-1	1.573716E-2	2.918892E-2	-1.013632E+1	1.457878E-2	1.946206E-2	8.477112E-2	3.927877E-2
10/19/2017  17:25:32.467424	1.330677E-2	8.105642E-3	2.409852E-2	-1.012105E+1	1.967868E-2	1.691808E-2	8.222822E-2	3.419094E-2
10/19/2017  17:25:32.468424	5.397873E-2	1.064948E-2	1.900811E-2	-1.013632E+1	2.477858E-2	1.946206E-2	8.222822E-2	2.401527E-2
10/19/2017  17:25:32.469424	-4.515918E-2	1.319332E-2	6.282096E-3	-1.014651E+1	2.987847E-2	1.437409E-2	7.714242E-2	3.164702E-2
10/19/2017  17:25:32.470424	-1.773431E-1	2.336868E-2	1.646291E-2	-1.013887E+1	1.967868E-2	2.455003E-2	7.714242E-2	2.910311E-2
10/19/2017  17:25:32.471424	8.702470E-2	1.828100E-2	2.155331E-2	-1.014651E+1	2.222863E-2	1.437409E-2	7.205661E-2	3.419094E-2
10/19/2017  17:25:32.472424	1.759946E-1	1.064948E-2	2.409852E-2	-1.012869E+1	2.222863E-2	2.455003E-2	8.222822E-2	1.638352E-2
10/19/2017  17:25:32.473424	1.048187E-1	1.319332E-2	1.900811E-2	-1.011850E+1	2.222863E-2	1.437409E-2	8.222822E-2	3.927877E-2
10/19/2017  17:25:32.474424	1.584877E-2	1.064948E-2	8.827299E-3	-1.013378E+1	2.732853E-2	2.200605E-2	6.951371E-2	3.164702E-2
10/19/2017  17:25:32.475424	3.138778E-3	1.064948E-2	1.646291E-2	-1.013632E+1	2.477858E-2	2.455003E-2	6.697081E-2	3.164702E-2
10/19/2017  17:25:32.476424	2.855876E-2	1.064948E-2	2.918892E-2	-1.014651E+1	2.222863E-2	2.455003E-2	7.205661E-2	2.655919E-2
10/19/2017  17:25:32.477424	4.126874E-2	1.573716E-2	2.409852E-2	-1.013887E+1	1.202884E-2	2.200605E-2	8.731403E-2	3.673486E-2
10/19/2017  17:25:32.478424	1.076477E-2	5.561801E-3	1.391770E-2	-1.012869E+1	1.967868E-2	1.183011E-2	7.459952E-2	3.673486E-2
10/19/2017  17:25:32.479424	-7.029213E-3	1.828100E-2	1.900811E-2	-1.013378E+1	2.477858E-2	2.200605E-2	7.205661E-2	3.164702E-2
10/19/2017  17:25:32.480424	6.160473E-2	1.319332E-2	1.137250E-2	-1.013632E+1	3.242842E-2	2.709402E-2	7.459952E-2	3.673486E-2
10/19/2017  17:25:32.481424	4.126874E-2	1.064948E-2	1.900811E-2	-1.014396E+1	1.967868E-2	2.709402E-2	7.459952E-2	2.147136E-2
10/19/2017  17:25:32.482424	5.143673E-2	2.336868E-2	2.155331E-2	-1.014142E+1	1.202884E-2	2.200605E-2	7.714242E-2	3.164702E-2
10/19/2017  17:25:32.483424	5.397873E-2	1.319332E-2	2.664372E-2	-1.013632E+1	2.222863E-2	1.946206E-2	8.222822E-2	3.419094E-2
10/19/2017  17:25:32.484424	6.668872E-2	8.105642E-3	1.900811E-2	-1.012869E+1	2.477858E-2	2.963800E-2	7.714242E-2	4.182269E-2
10/19/2017  17:25:32.485424	4.381074E-2	1.064948E-2	1.391770E-2	-1.012359E+1	2.477858E-2	1.437409E-2	7.205661E-2	3.164702E-2
10/19/2017  17:25:32.486424	1.584877E-2	1.573716E-2	2.155331E-2	-1.012869E+1	2.222863E-2	1.946206E-2	7.714242E-2	2.910311E-2
10/19/2017  17:25:32.487424	-3.499119E-2	3.354405E-2	1.900811E-2	-1.013887E+1	2.222863E-2	2.455003E-2	7.714242E-2	3.164702E-2
10/19/2017  17:25:32.488424	-1.719720E-2	1.319332E-2	2.409852E-2	-1.013887E+1	1.457878E-2	9.286120E-3	7.459952E-2	3.164702E-2
								
10/19/2017  17:25:32.489424	5.680776E-3	1.319332E-2	2.409852E-2	-1.014142E+1	1.829045E-3	1.437409E-2	7.459952E-2	4.182269E-2
10/19/2017  17:25:32.490424	2.725905E-1	1.064948E-2	1.137250E-2	-1.012614E+1	2.732853E-2	1.946206E-2	7.714242E-2	3.927877E-2
10/19/2017  17:25:32.491424	1.785366E-1	1.064948E-2	1.137250E-2	-1.013378E+1	2.477858E-2	1.946206E-2	6.951371E-2	2.655919E-2
10/19/2017  17:25:32.492424	8.702470E-2	1.319332E-2	8.827299E-3	-1.014142E+1	2.732853E-2	1.691808E-2	6.951371E-2	2.401527E-2
10/19/2017  17:25:32.493424	-2.736519E-2	1.319332E-2	1.900811E-2	-1.013378E+1	2.732853E-2	2.200605E-2	7.714242E-2	2.910311E-2
10/19/2017  17:25:32.494424	5.680776E-3	1.828100E-2	2.409852E-2	-1.014142E+1	1.967868E-2	2.455003E-2	7.205661E-2	2.910311E-2
10/19/2017  17:25:32.495424	2.093276E-2	2.082484E-2	2.664372E-2	-1.014651E+1	1.202884E-2	2.455003E-2	7.968532E-2	2.910311E-2
10/19/2017  17:25:32.496424	3.110075E-2	1.064948E-2	1.900811E-2	-1.012869E+1	1.457878E-2	1.691808E-2	7.714242E-2	2.910311E-2
10/19/2017  17:25:32.497424	5.397873E-2	1.319332E-2	1.646291E-2	-1.013123E+1	1.712873E-2	1.183011E-2	7.968532E-2	4.182269E-2
10/19/2017  17:25:32.498424	-3.244919E-2	5.561801E-3	8.827299E-3	-1.012105E+1	2.732853E-2	1.691808E-2	6.697081E-2	3.164702E-2
10/19/2017  17:25:32.499424	-3.807029E-1	1.064948E-2	1.391770E-2	-1.014142E+1	2.987847E-2	1.946206E-2	7.205661E-2	2.147136E-2
10/19/2017  17:25:32.500424	-7.569185E-1	1.573716E-2	1.391770E-2	-1.012614E+1	2.732853E-2	3.218199E-2	7.205661E-2	2.401527E-2
10/19/2017  17:25:32.501424	-6.043987E-1	1.828100E-2	1.900811E-2	-1.014142E+1	2.222863E-2	2.963800E-2	7.459952E-2	2.147136E-2
10/19/2017  17:25:32.502424	4.098584E-1	2.082484E-2	1.900811E-2	-1.013378E+1	2.477858E-2	1.946206E-2	7.205661E-2	2.910311E-2
10/19/2017  17:25:32.503424	1.887046E-1	1.573716E-2	2.664372E-2	-1.013632E+1	1.712873E-2	2.963800E-2	8.222822E-2	3.164702E-2
10/19/2017  17:25:32.504424	-4.645888E-1	1.064948E-2	2.664372E-2	-1.013123E+1	1.457878E-2	2.200605E-2	7.459952E-2	3.164702E-2
10/19/2017  17:25:32.505424	-4.264588E-1	4.741205E-4	1.137250E-2	-1.012869E+1	1.202884E-2	1.946206E-2	8.222822E-2	3.419094E-2
10/19/2017  17:25:32.506424	9.818079E-1	1.319332E-2	1.646291E-2	-1.012869E+1	2.477858E-2	1.691808E-2	8.731403E-2	3.927877E-2
10/19/2017  17:25:32.507424	1.279222E+0	8.105642E-3	1.900811E-2	-1.012869E+1	3.497837E-2	2.455003E-2	7.205661E-2	3.164702E-2
10/19/2017  17:25:32.508424	8.801280E-1	1.828100E-2	1.137250E-2	-1.014142E+1	2.477858E-2	2.200605E-2	7.205661E-2	2.655919E-2
10/19/2017  17:25:32.509424	2.090406E-1	1.319332E-2	1.391770E-2	-1.013632E+1	2.222863E-2	9.286120E-3	7.459952E-2	2.401527E-2
10/19/2017  17:25:32.510424	1.429487E-1	2.591253E-2	1.900811E-2	-1.013887E+1	1.712873E-2	2.455003E-2	7.459952E-2	2.401527E-2
10/19/2017  17:25:32.511424	3.110075E-2	1.319332E-2	1.900811E-2	-1.013632E+1	2.222863E-2	1.691808E-2	7.205661E-2	2.655919E-2
10/19/2017  17:25:32.512424	2.601676E-2	1.319332E-2	2.409852E-2	-1.014142E+1	2.222863E-2	1.946206E-2	7.968532E-2	3.419094E-2
10/19/2017  17:25:32.513424	3.618475E-2	1.828100E-2	1.900811E-2	-1.013632E+1	2.477858E-2	3.726996E-2	7.714242E-2	4.182269E-2
10/19/2017  17:25:32.514424	1.683686E-1	4.741205E-4	1.900811E-2	-1.012105E+1	1.967868E-2	1.437409E-2	7.459952E-2	3.164702E-2
10/19/2017  17:25:32.515424	1.810786E-1	1.064948E-2	1.137250E-2	-1.013632E+1	2.987847E-2	1.437409E-2	6.951371E-2	2.401527E-2
10/19/2017  17:25:32.516424	2.903845E-1	1.064948E-2	1.137250E-2	-1.014651E+1	2.987847E-2	1.946206E-2	6.951371E-2	3.419094E-2
10/19/2017  17:25:32.517424	9.210870E-2	1.828100E-2	1.391770E-2	-1.014142E+1	2.987847E-2	2.963800E-2	6.951371E-2	3.164702E-2
10/19/2017  17:25:32.518424	3.364275E-2	2.082484E-2	1.646291E-2	-1.013887E+1	9.478889E-3	2.455003E-2	8.222822E-2	2.401527E-2
10/19/2017  17:25:32.519424	-1.188771E-1	1.319332E-2	1.391770E-2	-1.012614E+1	2.222863E-2	2.455003E-2	7.714242E-2	3.164702E-2
10/19/2017  17:25:32.520424	-2.891910E-1	1.573716E-2	1.646291E-2	-1.013632E+1	2.732853E-2	2.455003E-2	7.459952E-2	3.419094E-2
10/19/2017  17:25:32.521424	3.618475E-2	1.064948E-2	2.155331E-2	-1.013632E+1	2.222863E-2	1.437409E-2	7.459952E-2	3.419094E-2
								
10/19/2017  17:25:32.522424	3.615605E-1	8.105642E-3	1.391770E-2	-1.012869E+1	3.242842E-2	1.691808E-2	6.697081E-2	3.673486E-2
10/19/2017  17:25:32.523424	-1.061671E-1	1.064948E-2	1.646291E-2	-1.012869E+1	2.477858E-2	1.946206E-2	7.205661E-2	2.655919E-2
10/19/2017  17:25:32.524424	-5.713527E-1	2.082484E-2	1.900811E-2	-1.014142E+1	2.222863E-2	2.455003E-2	7.459952E-2	2.147136E-2
10/19/2017  17:25:32.525424	-5.942307E-1	1.573716E-2	1.646291E-2	-1.014142E+1	2.222863E-2	1.946206E-2	7.205661E-2	3.419094E-2
10/19/2017  17:25:32.526424	-6.323606E-1	1.573716E-2	2.664372E-2	-1.013632E+1	1.712873E-2	2.455003E-2	8.477112E-2	2.655919E-2
10/19/2017  17:25:32.527424	-2.408930E-1	5.561801E-3	2.664372E-2	-1.013378E+1	1.457878E-2	1.691808E-2	8.731403E-2	3.673486E-2
10/19/2017  17:25:32.528424	-1.973920E-2	5.561801E-3	2.155331E-2	-1.012869E+1	1.967868E-2	1.437409E-2	7.714242E-2	2.655919E-2
10/19/2017  17:25:32.529424	9.589299E-1	1.064948E-2	1.900811E-2	-1.011850E+1	2.222863E-2	1.946206E-2	7.459952E-2	3.419094E-2
10/19/2017  17:25:32.530424	-1.493811E-1	1.828100E-2	1.646291E-2	-1.013632E+1	2.987847E-2	2.200605E-2	6.697081E-2	3.164702E-2
10/19/2017  17:25:32.531424	-2.815650E-1	2.082484E-2	1.646291E-2	-1.014396E+1	2.222863E-2	2.709402E-2	6.697081E-2	2.910311E-2
10/19/2017  17:25:32.532424	7.352341E-1	1.573716E-2	8.827299E-3	-1.013887E+1	1.712873E-2	2.455003E-2	7.714242E-2	2.401527E-2
10/19/2017  17:25:32.533424	4.225684E-1	1.573716E-2	2.409852E-2	-1.013632E+1	1.967868E-2	2.200605E-2	9.239983E-2	3.164702E-2
10/19/2017  17:25:32.534424	6.767682E-1	1.573716E-2	2.155331E-2	-1.013632E+1	1.967868E-2	2.709402E-2	7.714242E-2	3.927877E-2
10/19/2017  17:25:32.535424	4.327364E-1	1.319332E-2	1.900811E-2	-1.013632E+1	1.967868E-2	1.437409E-2	7.459952E-2	3.164702E-2
10/19/2017  17:25:32.536424	2.446286E-1	1.573716E-2	2.409852E-2	-1.013123E+1	2.477858E-2	2.963800E-2	7.205661E-2	3.164702E-2
10/19/2017  17:25:32.537424	2.601676E-2	1.828100E-2	1.646291E-2	-1.014142E+1	1.712873E-2	2.963800E-2	7.205661E-2	2.147136E-2
10/19/2017  17:25:32.538424	4.556144E-1	1.319332E-2	1.646291E-2	-1.013123E+1	2.732853E-2	1.437409E-2	7.714242E-2	2.655919E-2
10/19/2017  17:25:32.539424	1.709106E-1	1.064948E-2	2.409852E-2	-1.014651E+1	1.967868E-2	2.455003E-2	7.968532E-2	3.164702E-2
10/19/2017  17:25:32.540424	-1.214191E-1	1.573716E-2	1.900811E-2	-1.013378E+1	2.222863E-2	2.963800E-2	7.205661E-2	4.436661E-2
10/19/2017  17:25:32.541424	1.149867E-1	4.741205E-4	1.900811E-2	-1.014142E+1	2.222863E-2	2.455003E-2	7.459952E-2	3.164702E-2
10/19/2017  17:25:32.542424	-4.007518E-2	1.319332E-2	1.137250E-2	-1.014142E+1	2.987847E-2	1.183011E-2	6.697081E-2	1.892744E-2
10/19/2017  17:25:32.543424	1.076477E-2	3.354405E-2	1.391770E-2	-1.013887E+1	2.477858E-2	1.946206E-2	7.714242E-2	2.401527E-2
10/19/2017  17:25:32.544424	-1.010831E-1	1.828100E-2	1.900811E-2	-1.014651E+1	1.967868E-2	2.963800E-2	7.459952E-2	3.164702E-2
10/19/2017  17:25:32.545424	-3.298629E-1	1.064948E-2	1.391770E-2	-1.014396E+1	1.457878E-2	2.200605E-2	7.714242E-2	3.419094E-2
10/19/2017  17:25:32.546424	-8.687664E-1	1.064948E-2	1.900811E-2	-1.013378E+1	2.222863E-2	2.455003E-2	7.968532E-2	3.419094E-2
10/19/2017  17:25:32.547424	-9.984083E-1	8.105642E-3	1.646291E-2	-1.012359E+1	3.242842E-2	1.437409E-2	7.714242E-2	3.419094E-2
10/19/2017  17:25:32.548424	-6.298186E-1	8.105642E-3	6.282096E-3	-1.012359E+1	2.987847E-2	1.437409E-2	6.697081E-2	3.419094E-2
10/19/2017  17:25:32.549424	4.606984E-1	2.082484E-2	1.391770E-2	-1.013887E+1	1.712873E-2	2.963800E-2	6.188501E-2	3.419094E-2
10/19/2017  17:25:32.550424	9.996019E-1	2.336868E-2	2.409852E-2	-1.013632E+1	2.222863E-2	2.963800E-2	7.968532E-2	2.655919E-2
10/19/2017  17:25:32.551424	5.191643E-1	2.082484E-2	1.900811E-2	-1.013887E+1	2.222863E-2	2.709402E-2	8.222822E-2	3.673486E-2
10/19/2017  17:25:32.552424	3.234305E-1	1.319332E-2	2.155331E-2	-1.013632E+1	2.222863E-2	2.455003E-2	8.222822E-2	3.164702E-2
10/19/2017  17:25:32.553424	2.827585E-1	1.573716E-2	2.664372E-2	-1.013887E+1	1.967868E-2	1.946206E-2	8.222822E-2	3.673486E-2
10/19/2017  17:25:32.554424	2.344606E-1	1.573716E-2	2.155331E-2	-1.013378E+1	1.967868E-2	1.691808E-2	7.205661E-2	3.927877E-2
								
10/19/2017  17:25:32.555424	1.861626E-1	1.064948E-2	1.391770E-2	-1.013632E+1	2.222863E-2	2.455003E-2	7.714242E-2	2.655919E-2
10/19/2017  17:25:32.556424	1.607426E-1	1.319332E-2	1.391770E-2	-1.015160E+1	2.222863E-2	1.183011E-2	6.951371E-2	3.164702E-2
10/19/2017  17:25:32.557424	1.963306E-1	3.100021E-2	1.137250E-2	-1.014651E+1	2.732853E-2	2.963800E-2	6.951371E-2	2.401527E-2
10/19/2017  17:25:32.558424	1.505746E-1	1.828100E-2	2.664372E-2	-1.014905E+1	1.457878E-2	3.472597E-2	7.968532E-2	2.147136E-2
10/19/2017  17:25:32.559424	1.582006E-1	5.561801E-3	1.391770E-2	-1.013378E+1	9.478889E-3	1.691808E-2	8.222822E-2	3.164702E-2
10/19/2017  17:25:32.560424	1.378647E-1	8.105642E-3	2.664372E-2	-1.012869E+1	1.712873E-2	2.200605E-2	8.222822E-2	3.673486E-2
10/19/2017  17:25:32.561424	1.175287E-1	1.064948E-2	1.137250E-2	-1.013378E+1	2.222863E-2	1.183011E-2	7.714242E-2	3.164702E-2
10/19/2017  17:25:32.562424	1.429487E-1	1.828100E-2	1.391770E-2	-1.013887E+1	2.987847E-2	2.455003E-2	7.968532E-2	3.164702E-2
10/19/2017  17:25:32.563424	1.607426E-1	2.082484E-2	2.155331E-2	-1.014142E+1	1.967868E-2	2.709402E-2	6.951371E-2	2.655919E-2
10/19/2017  17:25:32.564424	1.302387E-1	2.082484E-2	1.900811E-2	-1.014651E+1	1.967868E-2	2.709402E-2	7.714242E-2	2.147136E-2
10/19/2017  17:25:32.565424	1.200707E-1	2.082484E-2	1.900811E-2	-1.013632E+1	2.222863E-2	1.946206E-2	7.459952E-2	2.910311E-2
10/19/2017  17:25:32.566424	1.175287E-1	1.828100E-2	2.155331E-2	-1.013887E+1	1.457878E-2	2.200605E-2	7.968532E-2	3.164702E-2
10/19/2017  17:25:32.567424	9.973469E-2	1.064948E-2	1.646291E-2	-1.013378E+1	2.987847E-2	2.963800E-2	8.222822E-2	3.927877E-2
10/19/2017  17:25:32.568424	1.073607E-1	8.105642E-3	1.900811E-2	-1.013123E+1	1.712873E-2	1.691808E-2	7.459952E-2	3.673486E-2
10/19/2017  17:25:32.569424	8.702470E-2	1.064948E-2	1.137250E-2	-1.013123E+1	2.732853E-2	4.198150E-3	7.205661E-2	3.164702E-2
10/19/2017  17:25:32.570424	5.652073E-2	2.336868E-2	1.137250E-2	-1.013887E+1	2.987847E-2	1.946206E-2	7.205661E-2	3.164702E-2
10/19/2017  17:25:32.571424	5.143673E-2	1.828100E-2	1.646291E-2	-1.013887E+1	2.222863E-2	2.200605E-2	7.714242E-2	2.655919E-2
10/19/2017  17:25:32.572424	6.414672E-2	3.017961E-3	2.155331E-2	-1.014396E+1	1.202884E-2	2.200605E-2	6.951371E-2	3.673486E-2
10/19/2017  17:25:32.573424	7.685671E-2	1.319332E-2	2.664372E-2	-1.013378E+1	1.457878E-2	1.946206E-2	7.968532E-2	3.164702E-2
10/19/2017  17:25:32.574424	3.110075E-2	5.561801E-3	2.664372E-2	-1.012869E+1	2.732853E-2	1.183011E-2	8.477112E-2	3.164702E-2
10/19/2017  17:25:32.575424	2.093276E-2	8.105642E-3	1.137250E-2	-1.013632E+1	2.222863E-2	1.183011E-2	7.205661E-2	3.927877E-2
10/19/2017  17:25:32.576424	4.889474E-2	1.319332E-2	2.155331E-2	-1.013123E+1	3.242842E-2	1.437409E-2	7.459952E-2	3.419094E-2
10/19/2017  17:25:32.577424	6.160473E-2	1.573716E-2	1.646291E-2	-1.015160E+1	2.732853E-2	2.455003E-2	6.697081E-2	2.401527E-2
10/19/2017  17:25:32.578424	5.906273E-2	1.828100E-2	1.900811E-2	-1.013632E+1	1.712873E-2	2.709402E-2	7.205661E-2	2.655919E-2
10/19/2017  17:25:32.579424	9.465070E-2	1.064948E-2	1.391770E-2	-1.012869E+1	2.477858E-2	2.455003E-2	7.968532E-2	3.164702E-2
10/19/2017  17:25:32.580424	1.073607E-1	1.064948E-2	2.155331E-2	-1.013887E+1	1.457878E-2	1.946206E-2	8.985693E-2	2.910311E-2
10/19/2017  17:25:32.581424	9.973469E-2	1.064948E-2	3.427933E-2	-1.014142E+1	1.712873E-2	9.286120E-3	7.459952E-2	3.927877E-2
10/19/2017  17:25:32.582424	2.855876E-2	8.105642E-3	1.900811E-2	-1.013123E+1	2.222863E-2	1.691808E-2	7.714242E-2	3.419094E-2
10/19/2017  17:25:32.583424	-3.244919E-2	1.573716E-2	1.900811E-2	-1.012105E+1	2.222863E-2	2.963800E-2	7.714242E-2	3.164702E-2
10/19/2017  17:25:32.584424	-7.820515E-2	1.573716E-2	1.137250E-2	-1.013632E+1	2.987847E-2	1.946206E-2	6.951371E-2	3.164702E-2
10/19/2017  17:25:32.585424	-2.736519E-2	2.082484E-2	1.646291E-2	-1.015669E+1	2.477858E-2	1.946206E-2	7.205661E-2	2.655919E-2
10/19/2017  17:25:32.586424	5.967806E-4	1.828100E-2	2.918892E-2	-1.014142E+1	1.967868E-2	2.963800E-2	7.968532E-2	2.655919E-2
10/19/2017  17:25:32.587424	-2.736519E-2	1.064948E-2	2.664372E-2	-1.013632E+1	1.967868E-2	2.455003E-2	7.714242E-2	2.910311E-2
								
10/19/2017  17:25:32.588424	-5.278517E-2	4.741205E-4	1.900811E-2	-1.013123E+1	1.712873E-2	1.437409E-2	7.459952E-2	3.673486E-2
10/19/2017  17:25:32.589424	-1.973920E-2	1.828100E-2	1.900811E-2	-1.013632E+1	2.477858E-2	1.437409E-2	7.205661E-2	3.927877E-2
10/19/2017  17:25:32.590424	-6.295316E-2	1.573716E-2	2.664372E-2	-1.013378E+1	3.497837E-2	2.709402E-2	6.951371E-2	3.164702E-2
10/19/2017  17:25:32.591424	-1.290451E-1	1.828100E-2	1.391770E-2	-1.013378E+1	2.222863E-2	2.709402E-2	7.205661E-2	2.655919E-2
10/19/2017  17:25:32.592424	-7.057916E-2	1.573716E-2	8.827299E-3	-1.013632E+1	9.478889E-3	2.455003E-2	7.205661E-2	3.164702E-2
10/19/2017  17:25:32.593424	3.618475E-2	1.828100E-2	2.664372E-2	-1.014142E+1	1.712873E-2	1.691808E-2	8.477112E-2	3.164702E-2
10/19/2017  17:25:32.594424	1.429487E-1	1.319332E-2	6.282096E-3	-1.013887E+1	2.222863E-2	2.455003E-2	7.205661E-2	3.673486E-2
10/19/2017  17:25:32.595424	1.887046E-1	2.082484E-2	2.155331E-2	-1.013123E+1	2.222863E-2	1.183011E-2	7.714242E-2	3.673486E-2
10/19/2017  17:25:32.596424	2.217506E-1	1.573716E-2	1.137250E-2	-1.013378E+1	2.987847E-2	2.709402E-2	6.951371E-2	2.655919E-2
10/19/2017  17:25:32.597424	2.242926E-1	2.845637E-2	1.900811E-2	-1.013123E+1	1.967868E-2	2.963800E-2	7.968532E-2	2.401527E-2
10/19/2017  17:25:32.598424	1.912466E-1	1.319332E-2	2.409852E-2	-1.014142E+1	1.712873E-2	4.198150E-3	7.968532E-2	2.655919E-2
10/19/2017  17:25:32.599424	1.785366E-1	1.064948E-2	2.155331E-2	-1.012869E+1	2.732853E-2	1.437409E-2	7.714242E-2	4.182269E-2
10/19/2017  17:25:32.600424	1.429487E-1	1.573716E-2	1.900811E-2	-1.013632E+1	2.477858E-2	1.946206E-2	6.697081E-2	3.164702E-2
10/19/2017  17:25:32.601424	1.582006E-1	1.064948E-2	1.137250E-2	-1.012869E+1	1.457878E-2	2.455003E-2	6.951371E-2	2.147136E-2
10/19/2017  17:25:32.602424	1.226127E-1	1.319332E-2	1.391770E-2	-1.013123E+1	2.222863E-2	1.946206E-2	7.459952E-2	3.164702E-2
10/19/2017  17:25:32.603424	1.404067E-1	1.319332E-2	1.646291E-2	-1.013123E+1	1.967868E-2	1.691808E-2	7.968532E-2	3.419094E-2
10/19/2017  17:25:32.604424	1.099027E-1	1.573716E-2	2.155331E-2	-1.014142E+1	2.222863E-2	1.437409E-2	7.205661E-2	3.419094E-2
10/19/2017  17:25:32.605424	1.429487E-1	1.064948E-2	1.391770E-2	-1.013887E+1	9.478889E-3	2.200605E-2	6.697081E-2	3.673486E-2
10/19/2017  17:25:32.606424	1.276967E-1	2.082484E-2	1.646291E-2	-1.013632E+1	2.222863E-2	2.709402E-2	7.714242E-2	2.401527E-2
10/19/2017  17:25:32.607424	1.099027E-1	1.319332E-2	2.409852E-2	-1.012869E+1	1.457878E-2	1.946206E-2	8.731403E-2	3.673486E-2
10/19/2017  17:25:32.608424	8.702470E-2	1.064948E-2	1.137250E-2	-1.012359E+1	2.477858E-2	2.200605E-2	7.205661E-2	3.927877E-2
10/19/2017  17:25:32.609424	7.939871E-2	1.828100E-2	1.900811E-2	-1.013123E+1	1.967868E-2	1.946206E-2	7.459952E-2	4.182269E-2
10/19/2017  17:25:32.610424	8.448270E-2	1.319332E-2	1.391770E-2	-1.012105E+1	2.732853E-2	2.455003E-2	6.951371E-2	2.910311E-2
10/19/2017  17:25:32.611424	7.431471E-2	1.319332E-2	1.900811E-2	-1.014142E+1	1.712873E-2	2.963800E-2	7.459952E-2	3.673486E-2
10/19/2017  17:25:32.612424	3.618475E-2	1.828100E-2	2.155331E-2	-1.012869E+1	1.457878E-2	1.183011E-2	8.731403E-2	3.164702E-2
10/19/2017  17:25:32.613424	2.347476E-2	1.573716E-2	3.427933E-2	-1.013378E+1	1.457878E-2	9.286120E-3	7.968532E-2	3.673486E-2
10/19/2017  17:25:32.614424	3.872675E-2	8.105642E-3	1.391770E-2	-1.012869E+1	2.222863E-2	1.691808E-2	6.188501E-2	3.419094E-2
10/19/2017  17:25:32.615424	5.143673E-2	8.105642E-3	1.191689E-3	-1.013887E+1	2.477858E-2	2.709402E-2	6.951371E-2	2.401527E-2
10/19/2017  17:25:32.616424	6.414672E-2	2.082484E-2	2.155331E-2	-1.014142E+1	2.222863E-2	2.709402E-2	8.222822E-2	2.655919E-2
10/19/2017  17:25:32.617424	5.397873E-2	1.064948E-2	2.918892E-2	-1.013887E+1	2.987847E-2	3.218199E-2	7.459952E-2	2.655919E-2
10/19/2017  17:25:32.618424	5.143673E-2	1.064948E-2	2.918892E-2	-1.013887E+1	1.457878E-2	2.200605E-2	7.968532E-2	2.910311E-2
10/19/2017  17:25:32.619424	3.872675E-2	8.105642E-3	2.664372E-2	-1.012869E+1	1.967868E-2	2.200605E-2	7.459952E-2	3.419094E-2
10/19/2017  17:25:32.620424	2.855876E-2	1.064948E-2	1.391770E-2	-1.012869E+1	2.987847E-2	1.946206E-2	6.951371E-2	2.910311E-2
								
10/19/2017  17:25:32.621424	6.923072E-2	1.828100E-2	1.137250E-2	-1.014142E+1	2.987847E-2	1.691808E-2	7.205661E-2	2.147136E-2
10/19/2017  17:25:32.622424	3.110075E-2	1.319332E-2	2.664372E-2	-1.014396E+1	2.222863E-2	2.709402E-2	7.968532E-2	2.401527E-2
10/19/2017  17:25:32.623424	3.110075E-2	1.064948E-2	2.918892E-2	-1.013378E+1	1.712873E-2	1.691808E-2	8.222822E-2	3.419094E-2
10/19/2017  17:25:32.624424	5.652073E-2	8.105642E-3	1.900811E-2	-1.012105E+1	1.712873E-2	1.437409E-2	7.205661E-2	3.419094E-2
10/19/2017  17:25:32.625424	1.022767E-1	1.573716E-2	1.137250E-2	-1.013887E+1	2.987847E-2	6.742135E-3	7.205661E-2	2.147136E-2
10/19/2017  17:25:32.626424	8.702470E-2	3.017961E-3	1.900811E-2	-1.014905E+1	2.987847E-2	2.200605E-2	7.968532E-2	2.910311E-2
10/19/2017  17:25:32.627424	3.618475E-2	1.573716E-2	2.155331E-2	-1.013887E+1	1.712873E-2	1.946206E-2	7.714242E-2	2.910311E-2
10/19/2017  17:25:32.628424	4.635274E-2	1.319332E-2	2.664372E-2	-1.013887E+1	6.928941E-3	1.946206E-2	7.714242E-2	3.927877E-2
10/19/2017  17:25:32.629424	3.618475E-2	8.105642E-3	1.646291E-2	-1.012105E+1	2.222863E-2	1.691808E-2	7.459952E-2	3.164702E-2
10/19/2017  17:25:32.630424	3.872675E-2	1.064948E-2	1.137250E-2	-1.012869E+1	3.752832E-2	2.200605E-2	7.205661E-2	3.419094E-2
10/19/2017  17:25:32.631424	2.093276E-2	2.082484E-2	1.900811E-2	-1.014905E+1	2.732853E-2	2.455003E-2	7.205661E-2	2.655919E-2
10/19/2017  17:25:32.632424	8.222774E-3	1.828100E-2	2.664372E-2	-1.014142E+1	1.457878E-2	2.963800E-2	8.222822E-2	1.129569E-2
10/19/2017  17:25:32.633424	3.138778E-3	5.561801E-3	2.664372E-2	-1.013632E+1	1.712873E-2	1.691808E-2	8.731403E-2	3.673486E-2
10/19/2017  17:25:32.634424	3.138778E-3	1.064948E-2	1.900811E-2	-1.013123E+1	2.222863E-2	1.691808E-2	8.222822E-2	4.691052E-2
10/19/2017  17:25:32.635424	-3.244919E-2	1.319332E-2	1.137250E-2	-1.014142E+1	2.987847E-2	1.946206E-2	7.714242E-2	3.164702E-2
10/19/2017  17:25:32.636424	1.076477E-2	2.082484E-2	2.409852E-2	-1.013378E+1	1.967868E-2	2.963800E-2	7.459952E-2	3.419094E-2
10/19/2017  17:25:32.637424	1.330677E-2	1.573716E-2	3.173413E-2	-1.013123E+1	1.712873E-2	2.709402E-2	7.968532E-2	2.910311E-2
10/19/2017  17:25:32.638424	-4.515918E-2	5.561801E-3	1.646291E-2	-1.013123E+1	2.222863E-2	1.183011E-2	7.714242E-2	2.401527E-2
10/19/2017  17:25:32.639424	-9.571210E-3	1.573716E-2	1.900811E-2	-1.012869E+1	1.712873E-2	1.946206E-2	7.205661E-2	2.910311E-2
10/19/2017  17:25:32.640424	-5.278517E-2	1.319332E-2	1.646291E-2	-1.013887E+1	2.222863E-2	2.455003E-2	6.951371E-2	3.164702E-2
10/19/2017  17:25:32.641424	1.149867E-1	1.573716E-2	2.155331E-2	-1.013632E+1	1.712873E-2	3.218199E-2	7.459952E-2	2.147136E-2
10/19/2017  17:25:32.642424	7.098141E-1	5.561801E-3	1.391770E-2	-1.013887E+1	1.202884E-2	1.946206E-2	8.222822E-2	3.164702E-2
10/19/2017  17:25:32.643424	5.420423E-1	1.573716E-2	2.664372E-2	-1.012614E+1	1.712873E-2	2.200605E-2	7.968532E-2	3.164702E-2
10/19/2017  17:25:32.644424	-1.392131E-1	5.561801E-3	1.900811E-2	-1.012869E+1	2.477858E-2	1.183011E-2	6.951371E-2	3.673486E-2
10/19/2017  17:25:32.645424	-2.815650E-1	1.828100E-2	1.137250E-2	-1.013887E+1	2.987847E-2	2.200605E-2	6.442791E-2	2.147136E-2
10/19/2017  17:25:32.646424	4.635274E-2	2.082484E-2	3.427933E-2	-1.014396E+1	1.712873E-2	3.726996E-2	7.714242E-2	2.910311E-2
10/19/2017  17:25:32.647424	2.725905E-1	1.319332E-2	1.900811E-2	-1.013378E+1	2.732853E-2	2.200605E-2	8.222822E-2	3.164702E-2
10/19/2017  17:25:32.648424	2.344606E-1	1.064948E-2	1.137250E-2	-1.013632E+1	1.457878E-2	2.200605E-2	7.459952E-2	3.419094E-2
10/19/2017  17:25:32.649424	8.448270E-2	2.336868E-2	1.900811E-2	-1.012869E+1	1.712873E-2	1.691808E-2	7.205661E-2	3.419094E-2
10/19/2017  17:25:32.650424	1.709106E-1	1.064948E-2	1.137250E-2	-1.013378E+1	2.987847E-2	2.963800E-2	7.968532E-2	3.673486E-2
10/19/2017  17:25:32.651424	-2.228120E-2	2.845637E-2	2.664372E-2	-1.013887E+1	2.477858E-2	2.963800E-2	7.459952E-2	2.401527E-2
10/19/2017  17:25:32.652424	1.076477E-2	1.319332E-2	2.664372E-2	-1.013887E+1	1.712873E-2	1.437409E-2	8.222822E-2	2.655919E-2
10/19/2017  17:25:32.653424	3.872675E-2	2.082484E-2	1.900811E-2	-1.012359E+1	2.732853E-2	1.183011E-2	7.459952E-2	3.927877E-2
								
10/19/2017  17:25:32.654424	4.889474E-2	8.105642E-3	1.137250E-2	-1.012869E+1	1.967868E-2	9.286120E-3	7.205661E-2	3.164702E-2
10/19/2017  17:25:32.655424	7.685671E-2	-2.069720E-3	1.900811E-2	-1.013378E+1	2.477858E-2	1.946206E-2	6.188501E-2	3.164702E-2
10/19/2017  17:25:32.656424	9.719269E-2	1.828100E-2	1.646291E-2	-1.013632E+1	1.457878E-2	3.218199E-2	7.968532E-2	2.655919E-2
10/19/2017  17:25:32.657424	7.177272E-2	1.319332E-2	2.409852E-2	-1.012869E+1	2.477858E-2	2.200605E-2	8.985693E-2	3.164702E-2
10/19/2017  17:25:32.658424	4.381074E-2	1.319332E-2	1.391770E-2	-1.013378E+1	2.477858E-2	2.200605E-2	7.714242E-2	3.927877E-2
10/19/2017  17:25:32.659424	3.872675E-2	1.573716E-2	1.646291E-2	-1.013378E+1	1.202884E-2	2.455003E-2	7.205661E-2	3.927877E-2
10/19/2017  17:25:32.660424	6.414672E-2	1.573716E-2	1.646291E-2	-1.013123E+1	2.987847E-2	1.946206E-2	7.205661E-2	3.164702E-2
10/19/2017  17:25:32.661424	5.652073E-2	1.319332E-2	1.900811E-2	-1.013887E+1	1.457878E-2	2.963800E-2	7.459952E-2	2.147136E-2
10/19/2017  17:25:32.662424	4.889474E-2	1.319332E-2	2.155331E-2	-1.012869E+1	9.478889E-3	1.946206E-2	8.222822E-2	3.164702E-2
10/19/2017  17:25:32.663424	4.381074E-2	1.064948E-2	3.173413E-2	-1.012614E+1	2.477858E-2	1.183011E-2	7.714242E-2	4.436661E-2
10/19/2017  17:25:32.664424	-1.973920E-2	8.105642E-3	1.137250E-2	-1.010577E+1	3.242842E-2	1.691808E-2	6.697081E-2	3.164702E-2
10/19/2017  17:25:32.665424	-4.290008E-1	1.573716E-2	1.646291E-2	-1.014142E+1	1.967868E-2	2.963800E-2	7.459952E-2	1.892744E-2
10/19/2017  17:25:32.666424	-6.654066E-1	1.828100E-2	2.155331E-2	-1.015924E+1	1.712873E-2	1.691808E-2	8.731403E-2	3.164702E-2
10/19/2017  17:25:32.667424	-1.087378E+0	8.105642E-3	3.173413E-2	-1.013632E+1	1.967868E-2	1.437409E-2	8.222822E-2	3.927877E-2
10/19/2017  17:25:32.668424	-8.458885E-1	8.105642E-3	1.391770E-2	-1.013378E+1	2.732853E-2	1.946206E-2	6.188501E-2	3.927877E-2
10/19/2017  17:25:32.669424	3.132625E-1	1.064948E-2	1.391770E-2	-1.013632E+1	2.477858E-2	1.946206E-2	6.951371E-2	3.419094E-2
10/19/2017  17:25:32.670424	-5.942307E-1	1.573716E-2	1.900811E-2	-1.013887E+1	1.712873E-2	2.200605E-2	7.968532E-2	2.655919E-2
10/19/2017  17:25:32.671424	-8.713084E-1	1.064948E-2	1.391770E-2	-1.013632E+1	1.457878E-2	1.437409E-2	8.477112E-2	3.673486E-2
10/19/2017  17:25:32.672424	1.347856E+0	1.064948E-2	1.900811E-2	-1.013632E+1	2.477858E-2	1.437409E-2	7.459952E-2	3.673486E-2
10/19/2017  17:25:32.673424	2.598518E+0	1.573716E-2	1.391770E-2	-1.013632E+1	1.712873E-2	2.709402E-2	7.459952E-2	3.419094E-2
10/19/2017  17:25:32.674424	1.645269E+0	1.828100E-2	1.900811E-2	-1.013123E+1	1.712873E-2	2.709402E-2	7.205661E-2	3.164702E-2
10/19/2017  17:25:32.675424	-3.883289E-1	2.082484E-2	2.155331E-2	-1.013378E+1	1.457878E-2	1.437409E-2	7.205661E-2	2.910311E-2
10/19/2017  17:25:32.676424	-1.674580E+0	1.064948E-2	2.409852E-2	-1.014142E+1	1.457878E-2	1.946206E-2	7.459952E-2	3.164702E-2
10/19/2017  17:25:32.677424	-4.007518E-2	1.064948E-2	2.155331E-2	-1.013632E+1	2.987847E-2	2.200605E-2	7.459952E-2	2.910311E-2
10/19/2017  17:25:32.678424	8.470820E-1	4.741205E-4	1.900811E-2	-1.013887E+1	2.477858E-2	1.946206E-2	6.951371E-2	2.655919E-2
10/19/2017  17:25:32.679424	1.614765E+0	2.082484E-2	2.664372E-2	-1.013632E+1	2.222863E-2	3.218199E-2	8.222822E-2	2.147136E-2
10/19/2017  17:25:32.680424	8.194071E-2	4.741205E-4	2.664372E-2	-1.013887E+1	2.222863E-2	1.691808E-2	8.477112E-2	3.673486E-2
10/19/2017  17:25:32.681424	-1.620911E-1	3.017961E-3	1.900811E-2	-1.013632E+1	2.222863E-2	9.286120E-3	7.459952E-2	3.673486E-2
10/19/2017  17:25:32.682424	2.903845E-1	3.608789E-2	1.391770E-2	-1.013887E+1	2.477858E-2	1.946206E-2	6.951371E-2	3.419094E-2
10/19/2017  17:25:32.683424	2.090406E-1	1.828100E-2	2.155331E-2	-1.013887E+1	2.222863E-2	2.963800E-2	7.968532E-2	2.655919E-2
10/19/2017  17:25:32.684424	1.632846E-1	1.064948E-2	2.409852E-2	-1.012614E+1	1.712873E-2	1.946206E-2	7.968532E-2	2.910311E-2
10/19/2017  17:25:32.685424	1.327807E-1	1.319332E-2	1.900811E-2	-1.013887E+1	1.967868E-2	1.946206E-2	7.459952E-2	3.673486E-2
10/19/2017  17:25:32.686424	1.251547E-1	1.064948E-2	1.900811E-2	-1.013123E+1	3.497837E-2	1.183011E-2	7.205661E-2	4.436661E-2
								
10/19/2017  17:25:32.687424	2.293766E-1	1.064948E-2	1.646291E-2	-1.013887E+1	2.987847E-2	2.200605E-2	6.951371E-2	3.164702E-2
10/19/2017  17:25:32.688424	2.420866E-1	2.082484E-2	1.900811E-2	-1.014651E+1	6.928941E-3	2.709402E-2	7.205661E-2	2.401527E-2
10/19/2017  17:25:32.689424	2.853005E-1	1.319332E-2	8.827299E-3	-1.015160E+1	1.457878E-2	2.455003E-2	8.731403E-2	3.164702E-2
10/19/2017  17:25:32.690424	-1.112511E-1	2.082484E-2	2.918892E-2	-1.012869E+1	1.967868E-2	1.437409E-2	8.477112E-2	4.691052E-2
10/19/2017  17:25:32.691424	-1.945217E-3	5.561801E-3	1.900811E-2	-1.013123E+1	1.967868E-2	1.183011E-2	6.951371E-2	3.419094E-2
10/19/2017  17:25:32.692424	-7.566315E-2	1.064948E-2	1.137250E-2	-1.012869E+1	2.477858E-2	1.946206E-2	6.697081E-2	1.892744E-2
10/19/2017  17:25:32.693424	-3.756189E-1	2.336868E-2	1.137250E-2	-1.013123E+1	2.732853E-2	2.963800E-2	7.968532E-2	2.401527E-2
10/19/2017  17:25:32.694424	1.520711E+0	2.336868E-2	2.155331E-2	-1.013887E+1	1.457878E-2	2.200605E-2	8.222822E-2	2.401527E-2
10/19/2017  17:25:32.695424	-7.238726E-1	1.064948E-2	2.409852E-2	-1.011596E+1	1.457878E-2	1.183011E-2	8.222822E-2	3.164702E-2
10/19/2017  17:25:32.696424	-2.096551E+0	5.561801E-3	2.918892E-2	-1.013123E+1	2.222863E-2	1.946206E-2	7.714242E-2	4.182269E-2
10/19/2017  17:25:32.697424	-7.009946E-1	1.828100E-2	1.137250E-2	-1.013887E+1	2.477858E-2	2.455003E-2	6.951371E-2	2.910311E-2
10/19/2017  17:25:32.698424	3.030945E-1	1.573716E-2	6.282096E-3	-1.014396E+1	2.222863E-2	2.455003E-2	7.205661E-2	3.419094E-2
10/19/2017  17:25:32.699424	3.818964E-1	1.828100E-2	2.409852E-2	-1.013378E+1	1.712873E-2	2.455003E-2	8.731403E-2	3.164702E-2
10/19/2017  17:25:32.700424	8.013261E-1	1.319332E-2	3.173413E-2	-1.013123E+1	2.477858E-2	1.691808E-2	7.714242E-2	3.927877E-2
10/19/2017  17:25:32.701424	3.742704E-1	1.319332E-2	1.391770E-2	-1.011850E+1	2.477858E-2	1.691808E-2	6.951371E-2	3.164702E-2
10/19/2017  17:25:32.702424	1.330677E-2	2.082484E-2	1.191689E-3	-1.014142E+1	2.477858E-2	3.218199E-2	6.951371E-2	2.910311E-2
10/19/2017  17:25:32.703424	-1.570071E-1	2.845637E-2	2.409852E-2	-1.013632E+1	1.457878E-2	2.963800E-2	7.714242E-2	2.401527E-2
10/19/2017  17:25:32.704424	-1.428006E+0	1.064948E-2	2.409852E-2	-1.013378E+1	1.967868E-2	9.286120E-3	8.222822E-2	3.673486E-2
10/19/2017  17:25:32.705424	-1.631366E+0	4.741205E-4	1.391770E-2	-1.013887E+1	1.967868E-2	1.691808E-2	7.459952E-2	3.164702E-2
10/19/2017  17:25:32.706424	-1.305990E+0	1.319332E-2	1.646291E-2	-1.013378E+1	2.987847E-2	3.218199E-2	6.951371E-2	3.164702E-2
10/19/2017  17:25:32.707424	8.394560E-1	3.863173E-2	1.900811E-2	-1.012869E+1	2.477858E-2	2.709402E-2	7.968532E-2	2.655919E-2
10/19/2017  17:25:32.708424	1.955393E+0	1.573716E-2	2.155331E-2	-1.013632E+1	1.457878E-2	1.691808E-2	7.968532E-2	2.655919E-2
10/19/2017  17:25:32.709424	6.106762E-1	4.741205E-4	2.155331E-2	-1.013632E+1	2.222863E-2	1.183011E-2	7.459952E-2	3.927877E-2
10/19/2017  17:25:32.710424	6.818522E-1	1.064948E-2	1.137250E-2	-1.012869E+1	2.732853E-2	1.946206E-2	6.951371E-2	3.927877E-2
10/19/2017  17:25:32.711424	1.048187E-1	1.064948E-2	1.137250E-2	-1.014651E+1	1.967868E-2	2.455003E-2	6.951371E-2	2.655919E-2
10/19/2017  17:25:32.712424	-5.024317E-2	1.828100E-2	1.391770E-2	-1.013632E+1	1.457878E-2	2.709402E-2	7.205661E-2	3.164702E-2
