Parameters: 	Upper Cutoff:  500	Lower Cutoff: 20	Sample Rate (Hz): 1000	Frames Per Second30	Display Window Size (S)100	MVC Window Size (s): 100	Seconds To Acquire MVC: 3	Display Channel: 0
waveform	[0]	[1]	[2]	[3]	[4]	[5]	[6]	[7]
t0	10/19/2017  17:27:25.798196	10/19/2017  17:27:25.798196	10/19/2017  17:27:25.798196	10/19/2017  17:27:25.798196	10/19/2017  17:27:25.798196	10/19/2017  17:27:25.798196	10/19/2017  17:27:25.798196	10/19/2017  17:27:25.798196
delta t	0.001000	0.001000	0.001000	0.001000	0.001000	0.001000	0.001000	0.001000

time	Y[0]	Y[1]	Y[2]	Y[3]	Y[4]	Y[5]	Y[6]	Y[7]
10/19/2017  17:27:25.773926	2.141246E-1	5.561801E-3	1.900811E-2	-1.012105E+1	2.222863E-2	1.946206E-2	7.968532E-2	2.910311E-2
10/19/2017  17:27:25.774926	-2.482320E-2	1.064948E-2	6.282096E-3	-1.013632E+1	2.477858E-2	1.946206E-2	6.951371E-2	1.892744E-2
10/19/2017  17:27:25.775926	-1.211321E-2	1.319332E-2	1.646291E-2	-1.015415E+1	2.987847E-2	1.946206E-2	6.188501E-2	2.655919E-2
10/19/2017  17:27:25.776926	1.607426E-1	1.828100E-2	2.918892E-2	-1.013887E+1	1.967868E-2	3.218199E-2	7.714242E-2	1.892744E-2
10/19/2017  17:27:25.777926	-2.990719E-2	1.064948E-2	1.900811E-2	-1.013887E+1	2.222863E-2	2.709402E-2	8.985693E-2	3.164702E-2
10/19/2017  17:27:25.778926	-3.908709E-1	1.573716E-2	1.646291E-2	-1.012869E+1	1.712873E-2	1.437409E-2	7.459952E-2	2.910311E-2
10/19/2017  17:27:25.779926	-4.261718E-2	1.064948E-2	1.646291E-2	-1.013123E+1	2.732853E-2	1.437409E-2	6.951371E-2	3.927877E-2
10/19/2017  17:27:25.780926	1.144496E+0	1.573716E-2	2.918892E-2	-1.013632E+1	3.497837E-2	2.963800E-2	6.697081E-2	3.419094E-2
10/19/2017  17:27:25.781926	9.465070E-2	2.082484E-2	1.900811E-2	-1.013378E+1	1.712873E-2	1.946206E-2	7.205661E-2	2.401527E-2
10/19/2017  17:27:25.782926	-7.569185E-1	2.082484E-2	1.391770E-2	-1.013887E+1	1.457878E-2	2.455003E-2	7.205661E-2	3.164702E-2
10/19/2017  17:27:25.783926	-9.551944E-1	1.828100E-2	2.409852E-2	-1.013887E+1	1.457878E-2	2.200605E-2	8.222822E-2	2.910311E-2
10/19/2017  17:27:25.784926	1.632846E-1	1.064948E-2	2.664372E-2	-1.013378E+1	1.712873E-2	4.198150E-3	7.968532E-2	3.419094E-2
10/19/2017  17:27:25.785926	2.766290E+0	-7.157401E-3	1.900811E-2	-1.012614E+1	1.457878E-2	1.437409E-2	6.442791E-2	3.673486E-2
10/19/2017  17:27:25.786926	2.489213E+0	1.319332E-2	1.137250E-2	-1.013378E+1	2.732853E-2	2.963800E-2	6.697081E-2	2.910311E-2
10/19/2017  17:27:25.787926	-1.524602E+0	2.336868E-2	1.391770E-2	-1.013887E+1	1.967868E-2	1.946206E-2	6.951371E-2	2.401527E-2
10/19/2017  17:27:25.788926	-2.116887E+0	1.828100E-2	1.646291E-2	-1.014905E+1	2.222863E-2	2.455003E-2	7.205661E-2	2.910311E-2
10/19/2017  17:27:25.789926	-5.281387E-1	3.017961E-3	1.391770E-2	-1.014651E+1	1.457878E-2	1.946206E-2	7.205661E-2	3.164702E-2
10/19/2017  17:27:25.790926	2.090406E-1	1.573716E-2	2.409852E-2	-1.013632E+1	1.967868E-2	1.946206E-2	8.477112E-2	3.419094E-2
10/19/2017  17:27:25.791926	3.895224E-1	4.741205E-4	2.664372E-2	-1.012869E+1	2.477858E-2	1.691808E-2	8.477112E-2	3.164702E-2
10/19/2017  17:27:25.792926	4.581564E-1	1.573716E-2	1.391770E-2	-1.013123E+1	2.477858E-2	9.286120E-3	7.459952E-2	3.164702E-2
10/19/2017  17:27:25.793926	7.835321E-1	1.319332E-2	1.646291E-2	-1.013887E+1	4.262821E-2	2.200605E-2	6.951371E-2	3.673486E-2
10/19/2017  17:27:25.794926	5.776303E-1	1.573716E-2	1.646291E-2	-1.013632E+1	2.987847E-2	2.709402E-2	6.951371E-2	2.147136E-2
10/19/2017  17:27:25.795926	-6.501546E-1	1.573716E-2	1.900811E-2	-1.014651E+1	2.222863E-2	2.455003E-2	7.714242E-2	1.638352E-2
10/19/2017  17:27:25.796926	-6.603226E-1	1.828100E-2	2.155331E-2	-1.015160E+1	1.712873E-2	2.200605E-2	7.968532E-2	2.147136E-2
10/19/2017  17:27:25.797926	3.081785E-1	1.573716E-2	2.664372E-2	-1.012869E+1	1.967868E-2	2.200605E-2	8.222822E-2	4.945444E-2
10/19/2017  17:27:25.798926	1.836206E-1	5.561801E-3	3.173413E-2	-1.011596E+1	1.967868E-2	1.691808E-2	7.205661E-2	3.673486E-2
10/19/2017  17:27:25.799926	-3.451149E-1	1.064948E-2	1.391770E-2	-1.012869E+1	2.477858E-2	2.455003E-2	7.459952E-2	2.910311E-2
10/19/2017  17:27:25.800926	-1.061671E-1	1.573716E-2	1.646291E-2	-1.013887E+1	2.222863E-2	1.691808E-2	7.459952E-2	3.419094E-2
10/19/2017  17:27:25.801926	-2.434350E-1	2.591253E-2	2.155331E-2	-1.014396E+1	2.732853E-2	2.963800E-2	7.459952E-2	2.655919E-2
10/19/2017  17:27:25.802926	-8.328914E-2	2.082484E-2	2.409852E-2	-1.013887E+1	1.457878E-2	3.218199E-2	6.697081E-2	3.164702E-2
10/19/2017  17:27:25.803926	-6.295316E-2	5.561801E-3	1.646291E-2	-1.013887E+1	1.202884E-2	1.691808E-2	8.477112E-2	3.927877E-2
10/19/2017  17:27:25.804926	-1.163351E-1	1.064948E-2	1.646291E-2	-1.013378E+1	2.477858E-2	1.437409E-2	8.222822E-2	3.419094E-2
10/19/2017  17:27:25.805926	1.330677E-2	2.591253E-2	2.918892E-2	-1.013632E+1	2.477858E-2	2.200605E-2	7.459952E-2	2.910311E-2
								
10/19/2017  17:27:25.806926	-1.214191E-1	1.319332E-2	1.900811E-2	-1.014142E+1	2.732853E-2	1.946206E-2	6.697081E-2	2.655919E-2
10/19/2017  17:27:25.807926	-9.551944E-1	2.082484E-2	2.918892E-2	-1.014396E+1	2.222863E-2	2.963800E-2	7.459952E-2	2.655919E-2
10/19/2017  17:27:25.808926	-3.883289E-1	5.561801E-3	1.646291E-2	-1.013378E+1	1.967868E-2	2.200605E-2	7.459952E-2	3.164702E-2
10/19/2017  17:27:25.809926	1.881675E+0	1.319332E-2	1.900811E-2	-1.013632E+1	1.457878E-2	9.286120E-3	7.968532E-2	3.164702E-2
10/19/2017  17:27:25.810926	9.868919E-1	3.017961E-3	1.900811E-2	-1.013887E+1	2.477858E-2	2.455003E-2	7.459952E-2	3.164702E-2
10/19/2017  17:27:25.811926	-3.756189E-1	1.064948E-2	2.155331E-2	-1.012359E+1	2.732853E-2	3.472597E-2	7.459952E-2	4.436661E-2
10/19/2017  17:27:25.812926	-9.599913E-2	2.082484E-2	1.137250E-2	-1.011850E+1	2.222863E-2	1.437409E-2	6.697081E-2	3.927877E-2
10/19/2017  17:27:25.813926	-7.057916E-2	1.319332E-2	1.137250E-2	-1.013632E+1	3.242842E-2	6.742135E-3	7.205661E-2	2.147136E-2
10/19/2017  17:27:25.814926	-1.008576E+0	3.017961E-3	2.155331E-2	-1.015160E+1	1.967868E-2	1.946206E-2	6.951371E-2	2.910311E-2
10/19/2017  17:27:25.815926	-6.908266E-1	1.828100E-2	1.900811E-2	-1.014142E+1	2.222863E-2	2.963800E-2	7.459952E-2	3.164702E-2
10/19/2017  17:27:25.816926	8.750440E-1	5.561801E-3	1.646291E-2	-1.013632E+1	1.457878E-2	2.200605E-2	7.205661E-2	3.164702E-2
10/19/2017  17:27:25.817926	-4.770118E-2	1.319332E-2	1.900811E-2	-1.013887E+1	1.457878E-2	1.946206E-2	8.477112E-2	3.164702E-2
10/19/2017  17:27:25.818926	-3.501989E-1	1.064948E-2	1.900811E-2	-1.012359E+1	4.007827E-2	1.437409E-2	7.459952E-2	2.401527E-2
10/19/2017  17:27:25.819926	-9.571210E-3	1.319332E-2	1.137250E-2	-1.012359E+1	2.477858E-2	1.691808E-2	6.697081E-2	3.927877E-2
10/19/2017  17:27:25.820926	4.352784E-1	1.064948E-2	1.137250E-2	-1.013378E+1	1.712873E-2	2.455003E-2	6.442791E-2	2.147136E-2
10/19/2017  17:27:25.821926	7.530281E-1	1.573716E-2	1.900811E-2	-1.015669E+1	2.222863E-2	1.691808E-2	7.714242E-2	2.147136E-2
10/19/2017  17:27:25.822926	7.504861E-1	2.082484E-2	1.900811E-2	-1.013378E+1	1.967868E-2	1.946206E-2	7.459952E-2	3.673486E-2
10/19/2017  17:27:25.823926	8.702470E-2	1.064948E-2	2.664372E-2	-1.013887E+1	1.712873E-2	1.691808E-2	7.968532E-2	3.164702E-2
10/19/2017  17:27:25.824926	-4.950928E-1	8.105642E-3	2.155331E-2	-1.013123E+1	1.202884E-2	1.437409E-2	7.968532E-2	5.454227E-2
10/19/2017  17:27:25.825926	-4.112068E-1	5.561801E-3	1.900811E-2	-1.010832E+1	1.967868E-2	1.691808E-2	7.968532E-2	3.673486E-2
10/19/2017  17:27:25.826926	6.157602E-1	1.573716E-2	6.282096E-3	-1.013632E+1	2.987847E-2	1.946206E-2	6.951371E-2	2.147136E-2
10/19/2017  17:27:25.827926	1.393612E+0	1.319332E-2	1.137250E-2	-1.014651E+1	2.732853E-2	1.437409E-2	6.442791E-2	2.401527E-2
10/19/2017  17:27:25.828926	1.912466E-1	2.082484E-2	2.664372E-2	-1.014396E+1	2.222863E-2	3.218199E-2	7.714242E-2	2.655919E-2
10/19/2017  17:27:25.829926	-8.535144E-1	1.064948E-2	1.391770E-2	-1.013378E+1	2.222863E-2	3.218199E-2	8.477112E-2	3.419094E-2
10/19/2017  17:27:25.830926	-7.314986E-1	1.319332E-2	2.155331E-2	-1.013887E+1	1.457878E-2	1.946206E-2	7.714242E-2	3.164702E-2
10/19/2017  17:27:25.831926	-4.340848E-1	8.105642E-3	1.900811E-2	-1.013378E+1	2.222863E-2	1.946206E-2	7.205661E-2	3.927877E-2
10/19/2017  17:27:25.832926	7.657381E-1	8.105642E-3	1.137250E-2	-1.013123E+1	2.987847E-2	2.200605E-2	7.205661E-2	4.436661E-2
10/19/2017  17:27:25.833926	4.174844E-1	8.105642E-3	1.137250E-2	-1.013123E+1	2.732853E-2	2.455003E-2	6.188501E-2	3.164702E-2
10/19/2017  17:27:25.834926	6.668872E-2	1.319332E-2	1.900811E-2	-1.013887E+1	1.457878E-2	9.286120E-3	7.205661E-2	2.147136E-2
10/19/2017  17:27:25.835926	-6.549516E-2	1.828100E-2	1.646291E-2	-1.014651E+1	2.477858E-2	2.455003E-2	7.714242E-2	2.910311E-2
10/19/2017  17:27:25.836926	-6.295316E-2	1.319332E-2	2.664372E-2	-1.013887E+1	1.712873E-2	4.198150E-3	7.968532E-2	3.673486E-2
10/19/2017  17:27:25.837926	2.853005E-1	-4.613560E-3	1.391770E-2	-1.013378E+1	1.457878E-2	1.691808E-2	7.205661E-2	3.164702E-2
10/19/2017  17:27:25.838926	5.039123E-1	5.561801E-3	1.137250E-2	-1.012869E+1	2.732853E-2	4.198150E-3	6.951371E-2	3.164702E-2
								
10/19/2017  17:27:25.839926	4.098584E-1	3.608789E-2	1.391770E-2	-1.013378E+1	2.732853E-2	2.709402E-2	7.459952E-2	3.419094E-2
10/19/2017  17:27:25.840926	2.268346E-1	1.064948E-2	1.391770E-2	-1.014651E+1	2.222863E-2	2.455003E-2	7.714242E-2	2.401527E-2
10/19/2017  17:27:25.841926	3.081785E-1	1.064948E-2	2.918892E-2	-1.014905E+1	1.712873E-2	2.200605E-2	7.459952E-2	3.419094E-2
10/19/2017  17:27:25.842926	-9.091514E-2	5.561801E-3	1.900811E-2	-1.013123E+1	1.457878E-2	1.946206E-2	7.205661E-2	3.673486E-2
10/19/2017  17:27:25.843926	-2.637710E-1	1.064948E-2	1.137250E-2	-1.012869E+1	1.457878E-2	1.946206E-2	6.697081E-2	3.673486E-2
10/19/2017  17:27:25.844926	-6.295316E-2	1.319332E-2	8.827299E-3	-1.014396E+1	2.987847E-2	2.963800E-2	6.951371E-2	3.164702E-2
10/19/2017  17:27:25.845926	1.368192E+0	2.082484E-2	2.155331E-2	-1.013887E+1	2.732853E-2	2.709402E-2	7.714242E-2	3.164702E-2
10/19/2017  17:27:25.846926	5.420423E-1	1.319332E-2	2.155331E-2	-1.013632E+1	2.477858E-2	2.455003E-2	7.968532E-2	3.164702E-2
10/19/2017  17:27:25.847926	-5.916887E-1	1.319332E-2	1.391770E-2	-1.013887E+1	1.202884E-2	1.691808E-2	6.697081E-2	3.419094E-2
10/19/2017  17:27:25.848926	-5.027188E-1	5.561801E-3	1.391770E-2	-1.013887E+1	2.477858E-2	1.437409E-2	7.714242E-2	3.164702E-2
10/19/2017  17:27:25.849926	-1.595491E-1	1.064948E-2	1.137250E-2	-1.012869E+1	2.732853E-2	2.200605E-2	7.714242E-2	3.164702E-2
10/19/2017  17:27:25.850926	-1.798851E-1	1.064948E-2	1.900811E-2	-1.015669E+1	2.732853E-2	2.455003E-2	6.188501E-2	3.164702E-2
10/19/2017  17:27:25.851926	-3.476569E-1	1.319332E-2	1.900811E-2	-1.014651E+1	2.222863E-2	3.218199E-2	7.459952E-2	8.751773E-3
10/19/2017  17:27:25.852926	-3.501989E-1	1.319332E-2	1.900811E-2	-1.011850E+1	1.967868E-2	1.691808E-2	8.985693E-2	3.164702E-2
10/19/2017  17:27:25.853926	-2.993589E-1	1.828100E-2	3.173413E-2	-1.013887E+1	1.712873E-2	1.946206E-2	8.477112E-2	3.673486E-2
10/19/2017  17:27:25.854926	5.967806E-4	1.064948E-2	1.900811E-2	-1.013887E+1	1.202884E-2	6.742135E-3	8.222822E-2	3.673486E-2
10/19/2017  17:27:25.855926	5.217063E-1	4.741205E-4	1.137250E-2	-1.013378E+1	1.712873E-2	2.200605E-2	7.459952E-2	3.419094E-2
10/19/2017  17:27:25.856926	8.064101E-1	1.573716E-2	1.137250E-2	-1.013378E+1	2.477858E-2	2.963800E-2	7.714242E-2	3.164702E-2
10/19/2017  17:27:25.857926	2.802165E-1	1.319332E-2	8.827299E-3	-1.013123E+1	2.987847E-2	2.709402E-2	6.951371E-2	2.655919E-2
10/19/2017  17:27:25.858926	1.429487E-1	2.082484E-2	1.646291E-2	-1.014651E+1	2.222863E-2	2.709402E-2	7.459952E-2	2.401527E-2
10/19/2017  17:27:25.859926	-9.882403E-1	2.336868E-2	3.427933E-2	-1.014142E+1	1.967868E-2	3.218199E-2	7.968532E-2	3.164702E-2
10/19/2017  17:27:25.860926	-1.211936E+0	3.017961E-3	2.155331E-2	-1.013123E+1	1.202884E-2	2.200605E-2	8.477112E-2	2.655919E-2
10/19/2017  17:27:25.861926	-8.026745E-1	8.105642E-3	1.191689E-3	-1.013378E+1	1.457878E-2	4.198150E-3	7.714242E-2	3.164702E-2
10/19/2017  17:27:25.862926	-1.722591E-1	4.741205E-4	1.391770E-2	-1.013378E+1	2.987847E-2	1.946206E-2	7.205661E-2	3.164702E-2
10/19/2017  17:27:25.863926	2.547966E-1	1.319332E-2	1.391770E-2	-1.013632E+1	2.987847E-2	2.963800E-2	6.951371E-2	2.910311E-2
10/19/2017  17:27:25.864926	4.378204E-1	3.100021E-2	1.900811E-2	-1.013887E+1	1.967868E-2	2.963800E-2	7.205661E-2	2.401527E-2
10/19/2017  17:27:25.865926	1.836206E-1	2.336868E-2	2.664372E-2	-1.014651E+1	2.222863E-2	1.437409E-2	7.459952E-2	2.147136E-2
10/19/2017  17:27:25.866926	-2.637710E-1	3.100021E-2	2.664372E-2	-1.013887E+1	2.222863E-2	1.946206E-2	8.222822E-2	3.164702E-2
10/19/2017  17:27:25.867926	-7.416665E-1	8.105642E-3	2.409852E-2	-1.013887E+1	1.967868E-2	2.200605E-2	7.459952E-2	4.182269E-2
10/19/2017  17:27:25.868926	2.115826E-1	-2.069720E-3	1.646291E-2	-1.011850E+1	6.928941E-3	1.691808E-2	7.459952E-2	3.673486E-2
10/19/2017  17:27:25.869926	2.802165E-1	1.573716E-2	1.137250E-2	-1.012614E+1	2.987847E-2	2.455003E-2	6.951371E-2	3.164702E-2
10/19/2017  17:27:25.870926	-1.392131E-1	1.573716E-2	1.391770E-2	-1.013887E+1	3.752832E-2	2.455003E-2	7.205661E-2	2.401527E-2
10/19/2017  17:27:25.871926	6.208442E-1	1.828100E-2	1.900811E-2	-1.014142E+1	1.457878E-2	2.709402E-2	7.459952E-2	2.401527E-2
								
10/19/2017  17:27:25.872926	1.304642E+0	1.573716E-2	1.646291E-2	-1.013632E+1	2.222863E-2	2.963800E-2	7.459952E-2	2.655919E-2
10/19/2017  17:27:25.873926	1.271596E+0	5.561801E-3	2.409852E-2	-1.013887E+1	1.712873E-2	1.946206E-2	8.222822E-2	3.419094E-2
10/19/2017  17:27:25.874926	1.520711E+0	1.064948E-2	1.391770E-2	-1.012614E+1	1.967868E-2	1.691808E-2	7.205661E-2	3.164702E-2
10/19/2017  17:27:25.875926	3.158045E-1	1.573716E-2	1.900811E-2	-1.013632E+1	2.222863E-2	1.946206E-2	6.951371E-2	3.419094E-2
10/19/2017  17:27:25.876926	-2.536030E-1	8.105642E-3	1.646291E-2	-1.013887E+1	2.987847E-2	2.200605E-2	6.951371E-2	3.673486E-2
10/19/2017  17:27:25.877926	8.369140E-1	1.828100E-2	1.900811E-2	-1.012105E+1	2.222863E-2	3.726996E-2	7.968532E-2	2.147136E-2
10/19/2017  17:27:25.878926	7.581121E-1	2.591253E-2	1.900811E-2	-1.013887E+1	1.457878E-2	1.946206E-2	7.714242E-2	2.910311E-2
10/19/2017  17:27:25.879926	-2.281830E-1	1.064948E-2	2.409852E-2	-1.014142E+1	1.457878E-2	1.691808E-2	7.205661E-2	3.927877E-2
10/19/2017  17:27:25.880926	-4.340848E-1	8.105642E-3	1.900811E-2	-1.013123E+1	2.477858E-2	1.946206E-2	7.714242E-2	4.182269E-2
10/19/2017  17:27:25.881926	-3.476569E-1	1.319332E-2	1.137250E-2	-1.013378E+1	2.477858E-2	2.963800E-2	7.714242E-2	3.419094E-2
10/19/2017  17:27:25.882926	-5.024317E-2	1.064948E-2	1.646291E-2	-1.013632E+1	1.712873E-2	1.946206E-2	7.459952E-2	2.401527E-2
10/19/2017  17:27:25.883926	1.022767E-1	2.591253E-2	1.900811E-2	-1.014142E+1	2.477858E-2	2.709402E-2	8.222822E-2	3.164702E-2
10/19/2017  17:27:25.884926	-3.756189E-1	1.828100E-2	2.918892E-2	-1.013632E+1	2.222863E-2	1.691808E-2	7.968532E-2	3.419094E-2
10/19/2017  17:27:25.885926	-6.323606E-1	3.017961E-3	2.409852E-2	-1.013887E+1	1.202884E-2	2.455003E-2	7.968532E-2	3.927877E-2
10/19/2017  17:27:25.886926	-1.102630E+0	8.105642E-3	3.736893E-3	-1.013378E+1	1.457878E-2	9.286120E-3	7.205661E-2	3.419094E-2
10/19/2017  17:27:25.887926	-3.781609E-1	2.082484E-2	1.137250E-2	-1.013632E+1	3.497837E-2	2.455003E-2	7.205661E-2	3.164702E-2
10/19/2017  17:27:25.888926	3.180636E+0	1.064948E-2	1.646291E-2	-1.012869E+1	2.732853E-2	2.963800E-2	7.459952E-2	2.147136E-2
10/19/2017  17:27:25.889926	9.945179E-1	3.017961E-3	1.900811E-2	-1.014142E+1	1.712873E-2	1.946206E-2	7.205661E-2	2.147136E-2
10/19/2017  17:27:25.890926	-1.618656E+0	1.828100E-2	2.664372E-2	-1.013123E+1	1.457878E-2	1.691808E-2	8.222822E-2	2.655919E-2
10/19/2017  17:27:25.891926	-7.874225E-1	1.064948E-2	1.900811E-2	-1.013378E+1	1.967868E-2	1.691808E-2	7.968532E-2	3.419094E-2
10/19/2017  17:27:25.892926	-5.738947E-1	2.082484E-2	1.137250E-2	-1.013887E+1	2.732853E-2	9.286120E-3	7.205661E-2	3.164702E-2
10/19/2017  17:27:25.893926	2.855876E-2	2.082484E-2	1.900811E-2	-1.015669E+1	2.222863E-2	2.963800E-2	7.205661E-2	2.910311E-2
10/19/2017  17:27:25.894926	1.886759E+0	1.064948E-2	1.646291E-2	-1.012869E+1	2.477858E-2	2.200605E-2	7.459952E-2	3.164702E-2
10/19/2017  17:27:25.895926	-2.688550E-1	1.573716E-2	1.900811E-2	-1.013378E+1	1.202884E-2	2.200605E-2	7.205661E-2	3.673486E-2
10/19/2017  17:27:25.896926	-1.067042E+0	1.064948E-2	1.646291E-2	-1.013632E+1	2.222863E-2	9.286120E-3	6.951371E-2	3.164702E-2
10/19/2017  17:27:25.897926	-5.916887E-1	1.319332E-2	1.646291E-2	-1.013887E+1	1.457878E-2	1.946206E-2	6.188501E-2	2.655919E-2
10/19/2017  17:27:25.898926	-1.544651E-1	2.082484E-2	2.155331E-2	-1.012869E+1	2.477858E-2	2.963800E-2	7.459952E-2	3.164702E-2
10/19/2017  17:27:25.899926	-1.748011E-1	1.319332E-2	2.155331E-2	-1.013632E+1	1.967868E-2	2.455003E-2	7.714242E-2	2.147136E-2
10/19/2017  17:27:25.900926	-1.112511E-1	1.064948E-2	8.827299E-3	-1.012614E+1	2.477858E-2	1.183011E-2	7.459952E-2	4.182269E-2
10/19/2017  17:27:25.901926	-1.748011E-1	1.573716E-2	1.137250E-2	-1.013632E+1	3.242842E-2	2.455003E-2	6.697081E-2	4.945444E-2
10/19/2017  17:27:25.902926	-6.094827E-1	2.082484E-2	1.391770E-2	-1.011086E+1	2.987847E-2	2.709402E-2	7.205661E-2	2.401527E-2
10/19/2017  17:27:25.903926	-3.552829E-1	2.082484E-2	1.137250E-2	-1.013632E+1	2.222863E-2	2.455003E-2	7.459952E-2	2.401527E-2
10/19/2017  17:27:25.904926	1.076477E-2	1.319332E-2	2.664372E-2	-1.015160E+1	1.967868E-2	1.691808E-2	7.968532E-2	3.164702E-2
								
10/19/2017  17:27:25.905926	1.162290E+0	1.319332E-2	2.664372E-2	-1.012869E+1	2.222863E-2	1.946206E-2	7.459952E-2	3.927877E-2
10/19/2017  17:27:25.906926	-1.010831E-1	8.105642E-3	1.137250E-2	-1.013632E+1	2.477858E-2	1.946206E-2	6.188501E-2	3.419094E-2
10/19/2017  17:27:25.907926	3.618475E-2	8.105642E-3	2.155331E-2	-1.013378E+1	2.222863E-2	2.200605E-2	7.205661E-2	2.910311E-2
10/19/2017  17:27:25.908926	3.996904E-1	1.064948E-2	1.646291E-2	-1.013632E+1	2.222863E-2	2.963800E-2	8.731403E-2	2.910311E-2
10/19/2017  17:27:25.909926	2.598805E-1	1.828100E-2	1.900811E-2	-1.013378E+1	2.222863E-2	1.946206E-2	8.222822E-2	2.910311E-2
10/19/2017  17:27:25.910926	6.668872E-2	5.561801E-3	2.155331E-2	-1.013632E+1	1.457878E-2	1.437409E-2	7.968532E-2	3.673486E-2
10/19/2017  17:27:25.911926	4.124004E-1	8.105642E-3	1.137250E-2	-1.012614E+1	3.242842E-2	1.437409E-2	7.459952E-2	3.673486E-2
10/19/2017  17:27:25.912926	1.709106E-1	1.828100E-2	1.391770E-2	-1.012869E+1	2.987847E-2	2.200605E-2	6.951371E-2	2.910311E-2
10/19/2017  17:27:25.913926	1.482581E+0	1.319332E-2	1.900811E-2	-1.014142E+1	2.477858E-2	2.200605E-2	7.205661E-2	2.401527E-2
10/19/2017  17:27:25.914926	1.052984E+0	1.064948E-2	2.155331E-2	-1.014396E+1	1.457878E-2	2.709402E-2	7.205661E-2	3.164702E-2
10/19/2017  17:27:25.915926	-1.128050E+0	1.319332E-2	2.664372E-2	-1.013123E+1	1.967868E-2	2.963800E-2	7.459952E-2	3.164702E-2
10/19/2017  17:27:25.916926	-9.374004E-1	5.561801E-3	1.900811E-2	-1.012359E+1	1.712873E-2	1.691808E-2	7.205661E-2	3.673486E-2
10/19/2017  17:27:25.917926	-9.475684E-1	1.573716E-2	8.827299E-3	-1.013632E+1	2.987847E-2	9.286120E-3	7.205661E-2	2.401527E-2
10/19/2017  17:27:25.918926	-1.061671E-1	2.845637E-2	1.900811E-2	-1.015415E+1	3.242842E-2	2.963800E-2	7.459952E-2	2.910311E-2
10/19/2017  17:27:25.919926	6.106762E-1	1.319332E-2	2.918892E-2	-1.013123E+1	1.457878E-2	1.946206E-2	8.477112E-2	3.164702E-2
10/19/2017  17:27:25.920926	1.228382E+0	5.561801E-3	2.155331E-2	-1.012105E+1	1.967868E-2	1.691808E-2	6.951371E-2	3.164702E-2
10/19/2017  17:27:25.921926	8.140360E-1	1.064948E-2	1.137250E-2	-1.013632E+1	2.477858E-2	2.455003E-2	7.459952E-2	3.164702E-2
10/19/2017  17:27:25.922926	3.564765E-1	1.573716E-2	1.646291E-2	-1.013632E+1	3.752832E-2	2.200605E-2	7.968532E-2	3.164702E-2
10/19/2017  17:27:25.923926	5.397873E-2	1.828100E-2	1.900811E-2	-1.013887E+1	2.477858E-2	1.946206E-2	7.459952E-2	2.910311E-2
10/19/2017  17:27:25.924926	-1.595491E-1	1.319332E-2	2.155331E-2	-1.013123E+1	6.928941E-3	2.455003E-2	7.968532E-2	2.655919E-2
10/19/2017  17:27:25.925926	-3.883289E-1	5.561801E-3	1.900811E-2	-1.012105E+1	2.222863E-2	1.946206E-2	7.459952E-2	3.419094E-2
10/19/2017  17:27:25.926926	7.685671E-2	1.573716E-2	1.900811E-2	-1.013632E+1	2.477858E-2	1.946206E-2	7.205661E-2	2.401527E-2
10/19/2017  17:27:25.927926	5.166223E-1	1.064948E-2	6.282096E-3	-1.013378E+1	2.987847E-2	1.946206E-2	7.459952E-2	3.164702E-2
10/19/2017  17:27:25.928926	3.793544E-1	1.573716E-2	1.900811E-2	-1.013887E+1	2.222863E-2	2.963800E-2	7.459952E-2	2.147136E-2
10/19/2017  17:27:25.929926	-1.973920E-2	1.319332E-2	1.646291E-2	-1.014651E+1	1.202884E-2	2.455003E-2	8.222822E-2	3.164702E-2
10/19/2017  17:27:25.930926	4.022324E-1	8.105642E-3	2.918892E-2	-1.013632E+1	2.222863E-2	1.437409E-2	8.222822E-2	3.673486E-2
10/19/2017  17:27:25.931926	4.606984E-1	5.561801E-3	1.137250E-2	-1.013123E+1	2.222863E-2	1.183011E-2	7.205661E-2	3.164702E-2
10/19/2017  17:27:25.932926	3.463085E-1	1.064948E-2	1.900811E-2	-1.012614E+1	2.987847E-2	2.455003E-2	7.205661E-2	3.419094E-2
10/19/2017  17:27:25.933926	-5.278517E-2	1.828100E-2	1.391770E-2	-1.014142E+1	2.987847E-2	3.472597E-2	7.714242E-2	2.910311E-2
10/19/2017  17:27:25.934926	-4.487215E-3	1.828100E-2	8.827299E-3	-1.014396E+1	1.202884E-2	2.200605E-2	7.459952E-2	3.164702E-2
10/19/2017  17:27:25.935926	-1.315871E-1	1.319332E-2	2.155331E-2	-1.013632E+1	1.967868E-2	2.200605E-2	8.477112E-2	2.655919E-2
10/19/2017  17:27:25.936926	-8.611404E-1	1.064948E-2	3.173413E-2	-1.013887E+1	2.987847E-2	1.946206E-2	7.714242E-2	3.927877E-2
10/19/2017  17:27:25.937926	-6.882846E-1	5.561801E-3	1.646291E-2	-1.013887E+1	2.222863E-2	2.455003E-2	7.205661E-2	2.910311E-2
								
10/19/2017  17:27:25.938926	-1.112511E-1	1.319332E-2	3.736893E-3	-1.013887E+1	1.967868E-2	3.218199E-2	6.951371E-2	2.910311E-2
10/19/2017  17:27:25.939926	1.734526E-1	2.082484E-2	1.900811E-2	-1.013887E+1	2.477858E-2	2.963800E-2	7.968532E-2	2.910311E-2
10/19/2017  17:27:25.940926	7.177272E-2	1.319332E-2	2.664372E-2	-1.013887E+1	2.222863E-2	1.946206E-2	8.222822E-2	3.164702E-2
10/19/2017  17:27:25.941926	1.683686E-1	5.561801E-3	2.155331E-2	-1.012869E+1	2.222863E-2	1.691808E-2	7.714242E-2	3.673486E-2
10/19/2017  17:27:25.942926	-1.392131E-1	1.319332E-2	1.900811E-2	-1.014396E+1	2.222863E-2	1.183011E-2	6.951371E-2	3.164702E-2
10/19/2017  17:27:25.943926	-3.095269E-1	8.105642E-3	1.137250E-2	-1.013632E+1	3.752832E-2	2.963800E-2	6.951371E-2	1.892744E-2
10/19/2017  17:27:25.944926	-4.417108E-1	2.082484E-2	1.137250E-2	-1.013887E+1	2.222863E-2	2.455003E-2	7.205661E-2	2.655919E-2
10/19/2017  17:27:25.945926	3.872675E-2	1.064948E-2	2.155331E-2	-1.014905E+1	1.967868E-2	2.455003E-2	7.968532E-2	3.164702E-2
10/19/2017  17:27:25.946926	-1.493811E-1	1.319332E-2	1.646291E-2	-1.013378E+1	2.477858E-2	2.455003E-2	7.459952E-2	3.419094E-2
10/19/2017  17:27:25.947926	3.971484E-1	8.105642E-3	1.646291E-2	-1.014905E+1	2.987847E-2	2.200605E-2	7.459952E-2	3.164702E-2
10/19/2017  17:27:25.948926	4.606984E-1	1.319332E-2	8.827299E-3	-1.013887E+1	2.732853E-2	2.200605E-2	6.951371E-2	2.910311E-2
10/19/2017  17:27:25.949926	-4.900088E-1	2.082484E-2	1.137250E-2	-1.013632E+1	2.987847E-2	2.963800E-2	6.697081E-2	2.910311E-2
10/19/2017  17:27:25.950926	-5.611847E-1	1.573716E-2	2.409852E-2	-1.013632E+1	1.712873E-2	3.218199E-2	7.968532E-2	2.401527E-2
10/19/2017  17:27:25.951926	2.547966E-1	1.319332E-2	2.409852E-2	-1.013632E+1	4.378993E-3	1.946206E-2	8.222822E-2	2.147136E-2
10/19/2017  17:27:25.952926	7.962421E-1	1.064948E-2	1.391770E-2	-1.013123E+1	2.222863E-2	1.691808E-2	7.205661E-2	4.182269E-2
10/19/2017  17:27:25.953926	2.725905E-1	1.064948E-2	1.391770E-2	-1.013632E+1	2.477858E-2	1.946206E-2	7.205661E-2	4.436661E-2
10/19/2017  17:27:25.954926	9.690979E-1	1.064948E-2	1.646291E-2	-1.012359E+1	2.222863E-2	2.455003E-2	6.951371E-2	2.655919E-2
10/19/2017  17:27:25.955926	2.446286E-1	1.319332E-2	1.137250E-2	-1.014396E+1	1.457878E-2	1.946206E-2	7.459952E-2	2.147136E-2
10/19/2017  17:27:25.956926	-1.255150E+0	8.105642E-3	2.664372E-2	-1.015160E+1	1.967868E-2	1.946206E-2	8.731403E-2	3.164702E-2
10/19/2017  17:27:25.957926	-8.509724E-1	5.561801E-3	2.664372E-2	-1.012869E+1	1.967868E-2	1.437409E-2	8.222822E-2	3.164702E-2
10/19/2017  17:27:25.958926	-4.010389E-1	5.561801E-3	1.391770E-2	-1.015160E+1	2.732853E-2	1.691808E-2	7.205661E-2	3.673486E-2
10/19/2017  17:27:25.959926	3.641025E-1	3.017961E-3	2.155331E-2	-1.013887E+1	2.477858E-2	2.709402E-2	7.205661E-2	2.655919E-2
10/19/2017  17:27:25.960926	3.895224E-1	2.082484E-2	1.900811E-2	-1.014142E+1	2.477858E-2	2.963800E-2	7.205661E-2	2.655919E-2
10/19/2017  17:27:25.961926	5.039123E-1	1.064948E-2	1.646291E-2	-1.013378E+1	1.967868E-2	1.946206E-2	8.222822E-2	2.910311E-2
10/19/2017  17:27:25.962926	9.004640E-1	5.561801E-3	1.900811E-2	-1.012869E+1	2.222863E-2	1.691808E-2	6.697081E-2	3.927877E-2
10/19/2017  17:27:25.963926	9.462199E-1	1.573716E-2	1.900811E-2	-1.013632E+1	2.987847E-2	2.963800E-2	6.951371E-2	3.673486E-2
10/19/2017  17:27:25.964926	2.929265E-1	2.591253E-2	1.646291E-2	-1.013887E+1	2.477858E-2	2.963800E-2	7.459952E-2	3.164702E-2
10/19/2017  17:27:25.965926	2.751325E-1	1.319332E-2	1.900811E-2	-1.013632E+1	9.478889E-3	1.183011E-2	8.222822E-2	2.655919E-2
10/19/2017  17:27:25.966926	2.344606E-1	1.319332E-2	2.664372E-2	-1.012614E+1	1.967868E-2	1.183011E-2	8.222822E-2	3.927877E-2
10/19/2017  17:27:25.967926	9.465070E-2	8.105642E-3	1.900811E-2	-1.012869E+1	3.752832E-2	2.709402E-2	6.951371E-2	4.182269E-2
10/19/2017  17:27:25.968926	3.110075E-2	8.105642E-3	1.137250E-2	-1.013632E+1	2.222863E-2	2.200605E-2	6.951371E-2	2.910311E-2
10/19/2017  17:27:25.969926	1.124447E-1	1.828100E-2	1.646291E-2	-1.014142E+1	2.222863E-2	1.946206E-2	7.459952E-2	1.892744E-2
10/19/2017  17:27:25.970926	5.397873E-2	3.354405E-2	2.155331E-2	-1.012869E+1	2.222863E-2	2.455003E-2	8.731403E-2	3.164702E-2
								
10/19/2017  17:27:25.971926	-7.029213E-3	5.561801E-3	2.664372E-2	-1.013632E+1	1.712873E-2	1.437409E-2	8.222822E-2	4.182269E-2
10/19/2017  17:27:25.972926	-1.163351E-1	8.105642E-3	1.646291E-2	-1.013887E+1	1.457878E-2	1.437409E-2	7.205661E-2	3.419094E-2
10/19/2017  17:27:25.973926	-1.366711E-1	1.064948E-2	1.391770E-2	-1.013887E+1	2.732853E-2	2.709402E-2	6.951371E-2	3.164702E-2
10/19/2017  17:27:25.974926	-4.442528E-1	1.828100E-2	1.646291E-2	-1.013887E+1	1.457878E-2	1.946206E-2	7.459952E-2	2.147136E-2
10/19/2017  17:27:25.975926	1.208046E+0	1.828100E-2	1.646291E-2	-1.015160E+1	1.967868E-2	2.200605E-2	7.714242E-2	3.164702E-2
10/19/2017  17:27:25.976926	8.572500E-1	1.573716E-2	1.391770E-2	-1.013632E+1	1.457878E-2	2.709402E-2	7.714242E-2	3.673486E-2
10/19/2017  17:27:25.977926	-9.679043E-1	5.561801E-3	2.664372E-2	-1.012105E+1	1.967868E-2	1.437409E-2	7.205661E-2	3.927877E-2
10/19/2017  17:27:25.978926	-4.417108E-1	8.105642E-3	1.900811E-2	-1.013632E+1	2.222863E-2	1.946206E-2	8.477112E-2	2.147136E-2
10/19/2017  17:27:25.979926	-4.487215E-3	1.573716E-2	1.900811E-2	-1.014651E+1	2.222863E-2	1.437409E-2	6.188501E-2	3.164702E-2
10/19/2017  17:27:25.980926	7.939871E-2	2.336868E-2	2.155331E-2	-1.014651E+1	1.967868E-2	2.963800E-2	7.459952E-2	3.164702E-2
10/19/2017  17:27:25.981926	-3.044429E-1	1.319332E-2	3.427933E-2	-1.012359E+1	1.202884E-2	2.709402E-2	8.222822E-2	2.910311E-2
10/19/2017  17:27:25.982926	-1.209394E+0	1.319332E-2	1.391770E-2	-1.014142E+1	1.712873E-2	1.946206E-2	7.968532E-2	3.164702E-2
10/19/2017  17:27:25.983926	8.194071E-2	8.105642E-3	1.391770E-2	-1.012359E+1	2.987847E-2	9.286120E-3	8.222822E-2	3.673486E-2
10/19/2017  17:27:25.984926	2.949314E+0	2.336868E-2	1.391770E-2	-1.013632E+1	2.987847E-2	1.691808E-2	6.951371E-2	3.164702E-2
10/19/2017  17:27:25.985926	-4.467948E-1	2.082484E-2	1.900811E-2	-1.015160E+1	2.477858E-2	2.963800E-2	6.697081E-2	2.655919E-2
10/19/2017  17:27:25.986926	-1.224646E+0	1.064948E-2	2.664372E-2	-1.014396E+1	1.457878E-2	1.946206E-2	8.222822E-2	3.164702E-2
10/19/2017  17:27:25.987926	-3.476569E-1	1.064948E-2	2.664372E-2	-1.014396E+1	2.222863E-2	2.455003E-2	8.731403E-2	3.927877E-2
10/19/2017  17:27:25.988926	-4.823828E-1	2.082484E-2	3.173413E-2	-1.013887E+1	2.987847E-2	2.455003E-2	7.714242E-2	4.182269E-2
10/19/2017  17:27:25.989926	-9.854113E-2	8.105642E-3	1.137250E-2	-1.014142E+1	2.477858E-2	2.455003E-2	5.679920E-2	3.673486E-2
10/19/2017  17:27:25.990926	5.191643E-1	1.319332E-2	2.918892E-2	-1.013632E+1	2.477858E-2	1.946206E-2	7.205661E-2	3.164702E-2
10/19/2017  17:27:25.991926	3.996904E-1	1.828100E-2	1.900811E-2	-1.013887E+1	1.967868E-2	2.200605E-2	7.714242E-2	3.164702E-2
10/19/2017  17:27:25.992926	2.751325E-1	1.828100E-2	1.646291E-2	-1.013887E+1	1.457878E-2	9.286120E-3	7.459952E-2	2.910311E-2
10/19/2017  17:27:25.993926	-4.261718E-2	1.828100E-2	1.900811E-2	-1.013632E+1	2.987847E-2	1.946206E-2	7.459952E-2	4.182269E-2
10/19/2017  17:27:25.994926	4.759504E-1	1.064948E-2	1.137250E-2	-1.012614E+1	3.497837E-2	2.963800E-2	6.697081E-2	3.164702E-2
10/19/2017  17:27:25.995926	1.220756E+0	2.082484E-2	1.391770E-2	-1.013123E+1	2.477858E-2	2.455003E-2	6.697081E-2	3.164702E-2
10/19/2017  17:27:25.996926	-5.281387E-1	1.828100E-2	1.646291E-2	-1.013887E+1	2.222863E-2	1.437409E-2	7.459952E-2	1.892744E-2
10/19/2017  17:27:25.997926	-8.611404E-1	8.105642E-3	2.409852E-2	-1.015924E+1	2.222863E-2	2.455003E-2	8.222822E-2	3.673486E-2
10/19/2017  17:27:25.998926	-3.679929E-1	1.573716E-2	2.664372E-2	-1.013378E+1	1.457878E-2	2.455003E-2	7.968532E-2	4.182269E-2
10/19/2017  17:27:25.999926	-4.010389E-1	-2.069720E-3	1.900811E-2	-1.012869E+1	1.202884E-2	1.691808E-2	6.697081E-2	3.673486E-2
10/19/2017  17:27:26.000926	5.680776E-3	1.319332E-2	1.137250E-2	-1.012869E+1	2.477858E-2	2.455003E-2	6.951371E-2	2.655919E-2
10/19/2017  17:27:26.001926	-1.849691E-1	2.082484E-2	1.646291E-2	-1.014142E+1	2.987847E-2	2.709402E-2	7.968532E-2	2.147136E-2
10/19/2017  17:27:26.002926	1.078404E+0	1.064948E-2	2.409852E-2	-1.013887E+1	2.222863E-2	2.200605E-2	7.205661E-2	2.910311E-2
10/19/2017  17:27:26.003926	1.055526E+0	1.064948E-2	2.664372E-2	-1.012869E+1	1.829045E-3	1.691808E-2	7.205661E-2	4.182269E-2
								
10/19/2017  17:27:26.004926	3.488505E-1	1.064948E-2	1.646291E-2	-1.013378E+1	1.967868E-2	1.691808E-2	7.968532E-2	3.419094E-2
10/19/2017  17:27:26.005926	-1.239611E-1	1.319332E-2	2.155331E-2	-1.013632E+1	2.222863E-2	1.946206E-2	7.459952E-2	3.673486E-2
10/19/2017  17:27:26.006926	4.657824E-1	1.573716E-2	1.137250E-2	-1.015160E+1	2.987847E-2	1.946206E-2	6.951371E-2	2.147136E-2
10/19/2017  17:27:26.007926	1.404067E-1	1.828100E-2	1.900811E-2	-1.014142E+1	1.712873E-2	2.963800E-2	8.222822E-2	2.147136E-2
10/19/2017  17:27:26.008926	-1.290451E-1	5.561801E-3	2.409852E-2	-1.012614E+1	1.457878E-2	2.200605E-2	7.968532E-2	3.673486E-2
10/19/2017  17:27:26.009926	6.818522E-1	5.561801E-3	1.137250E-2	-1.012614E+1	2.222863E-2	1.691808E-2	7.459952E-2	2.147136E-2
10/19/2017  17:27:26.010926	-4.772988E-1	2.082484E-2	1.900811E-2	-1.013887E+1	2.222863E-2	1.437409E-2	6.697081E-2	2.910311E-2
10/19/2017  17:27:26.011926	-6.120247E-1	5.561801E-3	2.409852E-2	-1.013632E+1	2.732853E-2	2.963800E-2	6.951371E-2	2.401527E-2
10/19/2017  17:27:26.012926	-9.599913E-2	1.828100E-2	1.646291E-2	-1.013887E+1	2.477858E-2	3.726996E-2	8.477112E-2	2.147136E-2
10/19/2017  17:27:26.013926	7.428601E-1	8.105642E-3	1.646291E-2	-1.013123E+1	1.202884E-2	1.946206E-2	7.968532E-2	3.927877E-2
10/19/2017  17:27:26.014926	5.903402E-1	5.561801E-3	1.900811E-2	-1.012869E+1	2.477858E-2	1.691808E-2	7.205661E-2	3.673486E-2
10/19/2017  17:27:26.015926	2.776745E-1	1.064948E-2	2.664372E-2	-1.013123E+1	2.477858E-2	1.946206E-2	7.459952E-2	2.147136E-2
10/19/2017  17:27:26.016926	-2.612290E-1	2.336868E-2	1.137250E-2	-1.014396E+1	2.732853E-2	2.200605E-2	7.205661E-2	2.910311E-2
10/19/2017  17:27:26.017926	-4.747568E-1	1.573716E-2	1.191689E-3	-1.013887E+1	1.712873E-2	2.963800E-2	7.714242E-2	2.910311E-2
10/19/2017  17:27:26.018926	-4.722148E-1	2.082484E-2	2.409852E-2	-1.013632E+1	2.222863E-2	1.946206E-2	8.222822E-2	3.419094E-2
10/19/2017  17:27:26.019926	-2.993589E-1	1.319332E-2	1.391770E-2	-1.013378E+1	3.242842E-2	9.286120E-3	7.205661E-2	3.673486E-2
10/19/2017  17:27:26.020926	-9.599913E-2	-2.069720E-3	1.137250E-2	-1.013123E+1	1.967868E-2	1.691808E-2	7.205661E-2	3.419094E-2
10/19/2017  17:27:26.021926	3.717284E-1	1.064948E-2	1.646291E-2	-1.014142E+1	2.732853E-2	1.946206E-2	6.951371E-2	3.164702E-2
10/19/2017  17:27:26.022926	7.631961E-1	3.608789E-2	1.646291E-2	-1.013887E+1	2.987847E-2	2.455003E-2	7.714242E-2	2.401527E-2
10/19/2017  17:27:26.023926	4.835763E-1	1.064948E-2	2.409852E-2	-1.013887E+1	1.457878E-2	9.286120E-3	8.222822E-2	2.655919E-2
10/19/2017  17:27:26.024926	2.501923E+0	8.105642E-3	1.900811E-2	-1.014396E+1	2.732853E-2	2.200605E-2	7.459952E-2	3.673486E-2
10/19/2017  17:27:26.025926	-7.312115E-2	8.105642E-3	2.155331E-2	-1.012869E+1	2.222863E-2	1.946206E-2	7.205661E-2	3.419094E-2
10/19/2017  17:27:26.026926	-9.907823E-1	1.319332E-2	1.137250E-2	-1.012869E+1	1.712873E-2	2.200605E-2	6.951371E-2	2.401527E-2
10/19/2017  17:27:26.027926	-5.866047E-1	2.082484E-2	1.137250E-2	-1.014396E+1	2.222863E-2	2.963800E-2	7.205661E-2	2.401527E-2
10/19/2017  17:27:26.028926	-7.848805E-1	2.336868E-2	2.664372E-2	-1.013887E+1	2.987847E-2	2.963800E-2	6.951371E-2	3.164702E-2
10/19/2017  17:27:26.029926	-9.068964E-1	1.064948E-2	3.173413E-2	-1.013123E+1	1.457878E-2	2.455003E-2	7.714242E-2	3.419094E-2
10/19/2017  17:27:26.030926	-6.374446E-1	1.319332E-2	1.137250E-2	-1.013887E+1	9.478889E-3	1.946206E-2	8.477112E-2	2.655919E-2
10/19/2017  17:27:26.031926	-1.824271E-1	1.064948E-2	1.391770E-2	-1.013887E+1	2.477858E-2	1.691808E-2	7.459952E-2	4.182269E-2
10/19/2017  17:27:26.032926	1.099027E-1	1.828100E-2	2.155331E-2	-1.012869E+1	2.477858E-2	1.946206E-2	7.714242E-2	3.164702E-2
10/19/2017  17:27:26.033926	5.115383E-1	2.082484E-2	1.391770E-2	-1.013887E+1	2.732853E-2	2.455003E-2	6.442791E-2	2.910311E-2
10/19/2017  17:27:26.034926	5.344163E-1	1.828100E-2	2.155331E-2	-1.013887E+1	1.967868E-2	2.963800E-2	7.714242E-2	2.655919E-2
10/19/2017  17:27:26.035926	3.895224E-1	1.319332E-2	1.900811E-2	-1.011086E+1	2.477858E-2	2.963800E-2	8.222822E-2	2.910311E-2
10/19/2017  17:27:26.036926	1.299558E+0	2.336868E-2	1.391770E-2	-1.013887E+1	1.967868E-2	2.200605E-2	7.459952E-2	3.419094E-2
								
10/19/2017  17:27:26.037926	8.114940E-1	5.561801E-3	1.900811E-2	-1.013887E+1	1.967868E-2	9.286120E-3	6.697081E-2	3.164702E-2
10/19/2017  17:27:26.038926	-9.551944E-1	1.064948E-2	1.900811E-2	-1.013887E+1	2.987847E-2	2.455003E-2	6.951371E-2	3.164702E-2
10/19/2017  17:27:26.039926	-9.170644E-1	1.828100E-2	1.646291E-2	-1.014142E+1	2.987847E-2	3.218199E-2	7.459952E-2	2.401527E-2
10/19/2017  17:27:26.040926	-1.112511E-1	8.105642E-3	8.827299E-3	-1.013887E+1	1.967868E-2	2.455003E-2	7.714242E-2	2.910311E-2
10/19/2017  17:27:26.041926	1.022767E-1	1.828100E-2	2.155331E-2	-1.013887E+1	1.712873E-2	2.455003E-2	8.985693E-2	3.164702E-2
10/19/2017  17:27:26.042926	2.014146E-1	1.319332E-2	4.191494E-2	-1.012869E+1	2.732853E-2	9.286120E-3	7.459952E-2	3.673486E-2
10/19/2017  17:27:26.043926	2.115826E-1	4.741205E-4	1.137250E-2	-1.013378E+1	3.242842E-2	1.691808E-2	5.425630E-2	3.419094E-2
10/19/2017  17:27:26.044926	-1.468391E-1	1.319332E-2	-6.443920E-3	-1.013378E+1	1.712873E-2	3.981394E-2	6.951371E-2	2.655919E-2
10/19/2017  17:27:26.045926	-1.087091E-1	2.845637E-2	1.646291E-2	-1.013887E+1	2.477858E-2	2.963800E-2	8.222822E-2	2.910311E-2
10/19/2017  17:27:26.046926	5.089963E-1	1.064948E-2	2.409852E-2	-1.013378E+1	2.987847E-2	2.709402E-2	8.222822E-2	3.164702E-2
10/19/2017  17:27:26.047926	1.236008E+0	-2.069720E-3	1.900811E-2	-1.013378E+1	1.967868E-2	1.946206E-2	7.459952E-2	3.673486E-2
10/19/2017  17:27:26.048926	2.319186E-1	1.064948E-2	1.137250E-2	-1.013378E+1	2.987847E-2	2.455003E-2	7.205661E-2	3.164702E-2
10/19/2017  17:27:26.049926	-4.417108E-1	2.336868E-2	1.900811E-2	-1.014142E+1	1.712873E-2	2.963800E-2	7.714242E-2	3.164702E-2
10/19/2017  17:27:26.050926	-6.272767E-1	1.319332E-2	2.155331E-2	-1.014142E+1	1.457878E-2	9.286120E-3	7.459952E-2	3.164702E-2
10/19/2017  17:27:26.051926	6.513482E-1	3.017961E-3	1.900811E-2	-1.013887E+1	3.752832E-2	1.691808E-2	7.205661E-2	4.182269E-2
10/19/2017  17:27:26.052926	1.187710E+0	1.319332E-2	1.137250E-2	-1.012869E+1	2.477858E-2	2.455003E-2	7.205661E-2	3.164702E-2
10/19/2017  17:27:26.053926	-8.662244E-1	1.828100E-2	1.646291E-2	-1.013632E+1	1.712873E-2	2.963800E-2	7.205661E-2	2.147136E-2
10/19/2017  17:27:26.054926	-5.052608E-1	1.319332E-2	2.155331E-2	-1.013887E+1	1.457878E-2	1.946206E-2	8.477112E-2	3.164702E-2
10/19/2017  17:27:26.055926	-2.078470E-1	1.319332E-2	2.409852E-2	-1.013632E+1	1.829045E-3	1.183011E-2	7.968532E-2	4.691052E-2
10/19/2017  17:27:26.056926	-2.002210E-1	5.561801E-3	1.137250E-2	-1.013123E+1	2.732853E-2	1.691808E-2	6.697081E-2	2.910311E-2
10/19/2017  17:27:26.057926	-5.103448E-1	1.064948E-2	1.137250E-2	-1.014142E+1	1.967868E-2	1.946206E-2	6.697081E-2	2.910311E-2
10/19/2017  17:27:26.058926	-4.290008E-1	2.082484E-2	1.646291E-2	-1.013378E+1	2.222863E-2	3.218199E-2	7.459952E-2	2.147136E-2
10/19/2017  17:27:26.059926	2.446286E-1	1.319332E-2	2.155331E-2	-1.013887E+1	1.457878E-2	1.946206E-2	7.968532E-2	3.164702E-2
10/19/2017  17:27:26.060926	4.251104E-1	1.319332E-2	1.137250E-2	-1.013887E+1	1.967868E-2	2.200605E-2	7.714242E-2	2.910311E-2
10/19/2017  17:27:26.061926	2.827585E-1	5.561801E-3	1.900811E-2	-1.013887E+1	2.222863E-2	1.946206E-2	7.205661E-2	5.199836E-2
10/19/2017  17:27:26.062926	-2.358090E-1	1.319332E-2	1.900811E-2	-1.011850E+1	1.967868E-2	2.963800E-2	7.459952E-2	2.910311E-2
10/19/2017  17:27:26.063926	-7.950485E-1	1.828100E-2	1.137250E-2	-1.014396E+1	1.967868E-2	2.455003E-2	7.459952E-2	2.401527E-2
10/19/2017  17:27:26.064926	-1.018744E+0	1.064948E-2	1.900811E-2	-1.015669E+1	2.222863E-2	1.691808E-2	6.951371E-2	3.164702E-2
10/19/2017  17:27:26.065926	-5.942307E-1	1.064948E-2	1.900811E-2	-1.013632E+1	2.477858E-2	2.709402E-2	7.714242E-2	3.164702E-2
10/19/2017  17:27:26.066926	7.962421E-1	1.573716E-2	1.646291E-2	-1.013378E+1	1.967868E-2	1.437409E-2	7.205661E-2	3.419094E-2
10/19/2017  17:27:26.067926	-8.074715E-2	3.017961E-3	1.137250E-2	-1.013887E+1	2.477858E-2	1.946206E-2	6.951371E-2	3.164702E-2
10/19/2017  17:27:26.068926	-8.204685E-1	2.082484E-2	1.137250E-2	-1.013632E+1	2.477858E-2	1.946206E-2	8.731403E-2	2.910311E-2
10/19/2017  17:27:26.069926	5.293323E-1	3.100021E-2	2.409852E-2	-1.014651E+1	2.987847E-2	2.963800E-2	7.714242E-2	2.655919E-2
								
10/19/2017  17:27:26.070926	1.406322E+0	5.561801E-3	1.137250E-2	-1.014142E+1	1.712873E-2	1.946206E-2	7.205661E-2	2.910311E-2
10/19/2017  17:27:26.071926	1.091114E+0	1.573716E-2	6.282096E-3	-1.013632E+1	6.928941E-3	1.437409E-2	8.222822E-2	2.910311E-2
10/19/2017  17:27:26.072926	6.386382E-1	1.064948E-2	2.409852E-2	-1.012614E+1	1.457878E-2	1.437409E-2	8.477112E-2	3.673486E-2
10/19/2017  17:27:26.073926	-4.290008E-1	8.105642E-3	3.736893E-3	-1.013378E+1	2.477858E-2	1.691808E-2	7.459952E-2	3.927877E-2
10/19/2017  17:27:26.074926	-1.425464E+0	1.828100E-2	1.391770E-2	-1.013887E+1	1.712873E-2	2.455003E-2	6.951371E-2	3.164702E-2
10/19/2017  17:27:26.075926	4.276524E-1	1.573716E-2	1.646291E-2	-1.013632E+1	2.222863E-2	3.472597E-2	6.951371E-2	3.164702E-2
10/19/2017  17:27:26.076926	3.953403E+0	1.319332E-2	1.646291E-2	-1.013378E+1	1.457878E-2	2.455003E-2	6.951371E-2	2.910311E-2
10/19/2017  17:27:26.077926	4.200264E-1	2.082484E-2	1.900811E-2	-1.014651E+1	1.457878E-2	2.709402E-2	8.222822E-2	2.147136E-2
10/19/2017  17:27:26.078926	-6.654066E-1	2.591253E-2	2.918892E-2	-1.012614E+1	1.457878E-2	2.200605E-2	8.222822E-2	3.927877E-2
10/19/2017  17:27:26.079926	4.734084E-1	1.064948E-2	1.137250E-2	-1.013123E+1	2.477858E-2	1.437409E-2	7.714242E-2	4.182269E-2
10/19/2017  17:27:26.080926	-4.239168E-1	1.064948E-2	1.137250E-2	-1.014142E+1	1.967868E-2	2.455003E-2	6.697081E-2	2.910311E-2
10/19/2017  17:27:26.081926	-3.832449E-1	1.828100E-2	8.827299E-3	-1.013887E+1	2.732853E-2	2.200605E-2	6.951371E-2	3.164702E-2
10/19/2017  17:27:26.082926	-1.417551E-1	2.082484E-2	1.646291E-2	-1.014142E+1	3.497837E-2	2.963800E-2	7.714242E-2	2.910311E-2
10/19/2017  17:27:26.083926	8.194071E-2	1.319332E-2	1.900811E-2	-1.014142E+1	2.222863E-2	2.455003E-2	7.459952E-2	3.164702E-2
10/19/2017  17:27:26.084926	-1.239611E-1	1.064948E-2	2.409852E-2	-1.013887E+1	6.928941E-3	2.455003E-2	7.459952E-2	3.164702E-2
10/19/2017  17:27:26.085926	-7.365826E-1	1.828100E-2	2.155331E-2	-1.014651E+1	2.222863E-2	2.200605E-2	7.459952E-2	3.927877E-2
10/19/2017  17:27:26.086926	-1.092462E+0	1.319332E-2	1.900811E-2	-1.013887E+1	2.222863E-2	1.691808E-2	7.714242E-2	2.147136E-2
10/19/2017  17:27:26.087926	-5.916887E-1	1.828100E-2	1.191689E-3	-1.015415E+1	2.987847E-2	1.437409E-2	6.697081E-2	3.419094E-2
10/19/2017  17:27:26.088926	1.454906E-1	2.336868E-2	6.282096E-3	-1.014142E+1	2.477858E-2	3.218199E-2	7.205661E-2	3.164702E-2
10/19/2017  17:27:26.089926	4.073164E-1	1.828100E-2	1.900811E-2	-1.012869E+1	1.712873E-2	3.472597E-2	8.222822E-2	2.910311E-2
10/19/2017  17:27:26.090926	6.030502E-1	1.064948E-2	1.646291E-2	-1.013378E+1	1.202884E-2	1.946206E-2	7.968532E-2	2.147136E-2
10/19/2017  17:27:26.091926	6.818522E-1	1.828100E-2	1.646291E-2	-1.015160E+1	1.967868E-2	1.183011E-2	8.222822E-2	3.164702E-2
10/19/2017  17:27:26.092926	8.369140E-1	1.573716E-2	2.155331E-2	-1.013378E+1	2.477858E-2	1.437409E-2	7.459952E-2	3.927877E-2
10/19/2017  17:27:26.093926	2.675065E-1	1.319332E-2	1.646291E-2	-1.014651E+1	1.967868E-2	1.691808E-2	7.968532E-2	3.164702E-2
10/19/2017  17:27:26.094926	-7.820515E-2	5.561801E-3	1.191689E-3	-1.013632E+1	2.222863E-2	1.691808E-2	7.205661E-2	2.655919E-2
10/19/2017  17:27:26.095926	2.675065E-1	2.591253E-2	1.391770E-2	-1.014142E+1	2.477858E-2	2.709402E-2	8.477112E-2	2.655919E-2
10/19/2017  17:27:26.096926	3.844384E-1	2.591253E-2	2.155331E-2	-1.013632E+1	1.202884E-2	3.726996E-2	8.222822E-2	2.910311E-2
10/19/2017  17:27:26.097926	2.141246E-1	8.105642E-3	2.918892E-2	-1.013887E+1	1.457878E-2	2.200605E-2	7.968532E-2	2.910311E-2
10/19/2017  17:27:26.098926	-2.027630E-1	1.573716E-2	2.664372E-2	-1.013378E+1	2.477858E-2	1.183011E-2	7.459952E-2	3.673486E-2
10/19/2017  17:27:26.099926	9.210870E-2	1.319332E-2	1.900811E-2	-1.012614E+1	2.222863E-2	1.946206E-2	7.205661E-2	3.419094E-2
10/19/2017  17:27:26.100926	1.378647E-1	1.573716E-2	1.191689E-3	-1.013632E+1	2.477858E-2	1.437409E-2	6.951371E-2	2.655919E-2
10/19/2017  17:27:26.101926	-1.341291E-1	3.100021E-2	1.391770E-2	-1.014142E+1	2.732853E-2	2.200605E-2	7.459952E-2	2.910311E-2
10/19/2017  17:27:26.102926	-5.993147E-1	2.082484E-2	2.155331E-2	-1.014651E+1	2.477858E-2	2.200605E-2	7.714242E-2	3.164702E-2
								
10/19/2017  17:27:26.103926	-6.806586E-1	3.863173E-2	2.918892E-2	-1.013887E+1	9.478889E-3	2.963800E-2	7.714242E-2	2.910311E-2
10/19/2017  17:27:26.104926	-6.654066E-1	1.573716E-2	2.409852E-2	-1.013123E+1	1.457878E-2	9.286120E-3	7.968532E-2	3.164702E-2
10/19/2017  17:27:26.105926	-6.628646E-1	5.561801E-3	1.900811E-2	-1.013887E+1	2.477858E-2	1.437409E-2	7.459952E-2	3.927877E-2
10/19/2017  17:27:26.106926	-1.900530E-1	1.319332E-2	1.900811E-2	-1.013632E+1	2.222863E-2	2.200605E-2	7.459952E-2	3.164702E-2
10/19/2017  17:27:26.107926	5.089963E-1	3.017961E-3	1.391770E-2	-1.013887E+1	1.967868E-2	2.455003E-2	7.205661E-2	2.401527E-2
10/19/2017  17:27:26.108926	3.488505E-1	1.828100E-2	6.282096E-3	-1.013123E+1	2.222863E-2	1.946206E-2	7.459952E-2	2.401527E-2
10/19/2017  17:27:26.109926	2.344606E-1	2.082484E-2	1.391770E-2	-1.013887E+1	3.497837E-2	1.946206E-2	7.714242E-2	2.655919E-2
10/19/2017  17:27:26.110926	8.702470E-2	1.319332E-2	2.155331E-2	-1.014142E+1	1.457878E-2	1.946206E-2	8.222822E-2	2.910311E-2
10/19/2017  17:27:26.111926	4.200264E-1	8.105642E-3	2.155331E-2	-1.012614E+1	9.478889E-3	1.946206E-2	7.714242E-2	3.927877E-2
10/19/2017  17:27:26.112926	1.119076E+0	1.064948E-2	2.409852E-2	-1.013378E+1	1.967868E-2	1.691808E-2	7.205661E-2	3.927877E-2
10/19/2017  17:27:26.113926	8.318300E-1	1.319332E-2	1.137250E-2	-1.013378E+1	2.732853E-2	2.200605E-2	7.459952E-2	3.673486E-2
10/19/2017  17:27:26.114926	-2.078470E-1	1.573716E-2	6.282096E-3	-1.012359E+1	1.967868E-2	1.946206E-2	6.951371E-2	3.419094E-2
10/19/2017  17:27:26.115926	-4.340848E-1	2.082484E-2	2.155331E-2	-1.013632E+1	1.967868E-2	2.455003E-2	7.459952E-2	4.691052E-2
10/19/2017  17:27:26.116926	-3.552829E-1	1.573716E-2	2.664372E-2	-1.012614E+1	1.457878E-2	2.455003E-2	7.968532E-2	3.164702E-2
10/19/2017  17:27:26.117926	5.906273E-2	1.319332E-2	1.900811E-2	-1.012869E+1	1.712873E-2	1.183011E-2	7.968532E-2	3.164702E-2
10/19/2017  17:27:26.118926	6.183022E-1	1.319332E-2	2.155331E-2	-1.014142E+1	2.222863E-2	9.286120E-3	7.714242E-2	3.673486E-2
10/19/2017  17:27:26.119926	6.513482E-1	2.336868E-2	2.664372E-2	-1.013887E+1	1.967868E-2	1.946206E-2	7.205661E-2	3.419094E-2
10/19/2017  17:27:26.120926	3.971484E-1	1.319332E-2	1.137250E-2	-1.013887E+1	2.732853E-2	1.946206E-2	7.205661E-2	2.910311E-2
10/19/2017  17:27:26.121926	2.347476E-2	1.319332E-2	8.827299E-3	-1.014651E+1	2.477858E-2	2.709402E-2	6.951371E-2	2.401527E-2
10/19/2017  17:27:26.122926	3.259725E-1	2.336868E-2	1.646291E-2	-1.014396E+1	2.477858E-2	2.455003E-2	7.205661E-2	2.401527E-2
10/19/2017  17:27:26.123926	6.157602E-1	2.082484E-2	2.664372E-2	-1.013887E+1	1.712873E-2	3.218199E-2	7.714242E-2	3.164702E-2
10/19/2017  17:27:26.124926	3.971484E-1	8.105642E-3	2.409852E-2	-1.013632E+1	1.457878E-2	1.691808E-2	6.951371E-2	3.673486E-2
10/19/2017  17:27:26.125926	-5.532717E-2	1.064948E-2	2.918892E-2	-1.013123E+1	1.712873E-2	2.709402E-2	7.714242E-2	3.419094E-2
10/19/2017  17:27:26.126926	-2.790230E-1	1.828100E-2	1.137250E-2	-1.013378E+1	2.477858E-2	1.183011E-2	7.205661E-2	2.655919E-2
10/19/2017  17:27:26.127926	-1.849691E-1	1.828100E-2	1.137250E-2	-1.014651E+1	2.987847E-2	1.183011E-2	6.951371E-2	3.164702E-2
10/19/2017  17:27:26.128926	1.248718E+0	1.064948E-2	1.646291E-2	-1.014651E+1	1.967868E-2	2.709402E-2	7.714242E-2	2.401527E-2
10/19/2017  17:27:26.129926	8.597920E-1	1.573716E-2	2.664372E-2	-1.013378E+1	1.457878E-2	3.218199E-2	8.222822E-2	3.673486E-2
10/19/2017  17:27:26.130926	-4.188328E-1	1.573716E-2	2.155331E-2	-1.013123E+1	1.967868E-2	2.200605E-2	7.459952E-2	3.927877E-2
10/19/2017  17:27:26.131926	-1.824271E-1	8.105642E-3	1.900811E-2	-1.013378E+1	2.222863E-2	1.691808E-2	7.459952E-2	2.401527E-2
10/19/2017  17:27:26.132926	-1.214191E-1	1.828100E-2	1.646291E-2	-1.014396E+1	3.497837E-2	2.200605E-2	6.951371E-2	3.419094E-2
10/19/2017  17:27:26.133926	-2.942750E-1	2.082484E-2	2.155331E-2	-1.014651E+1	2.222863E-2	2.963800E-2	6.951371E-2	2.910311E-2
10/19/2017  17:27:26.134926	-4.696728E-1	-7.157401E-3	2.409852E-2	-1.013123E+1	1.829045E-3	1.946206E-2	8.222822E-2	2.910311E-2
10/19/2017  17:27:26.135926	-1.951370E-1	1.319332E-2	1.391770E-2	-1.013887E+1	1.967868E-2	1.946206E-2	7.459952E-2	3.164702E-2
								
10/19/2017  17:27:26.136926	-8.328914E-2	1.319332E-2	1.900811E-2	-1.012869E+1	3.752832E-2	1.691808E-2	7.714242E-2	3.164702E-2
10/19/2017  17:27:26.137926	-1.945217E-3	1.319332E-2	1.137250E-2	-1.013887E+1	2.477858E-2	1.946206E-2	6.697081E-2	2.910311E-2
10/19/2017  17:27:26.138926	-2.990719E-2	2.082484E-2	8.827299E-3	-1.014142E+1	2.732853E-2	2.963800E-2	6.697081E-2	1.892744E-2
10/19/2017  17:27:26.139926	-6.295316E-2	2.082484E-2	2.918892E-2	-1.015669E+1	1.457878E-2	2.963800E-2	7.714242E-2	2.147136E-2
10/19/2017  17:27:26.140926	-6.654066E-1	1.319332E-2	2.409852E-2	-1.013887E+1	1.457878E-2	1.946206E-2	8.477112E-2	2.401527E-2
10/19/2017  17:27:26.141926	-2.485190E-1	1.064948E-2	1.137250E-2	-1.015160E+1	2.477858E-2	2.200605E-2	7.459952E-2	3.927877E-2
10/19/2017  17:27:26.142926	3.259725E-1	1.573716E-2	2.155331E-2	-1.013887E+1	2.477858E-2	2.455003E-2	7.714242E-2	4.436661E-2
10/19/2017  17:27:26.143926	3.618475E-2	1.319332E-2	1.391770E-2	-1.011850E+1	2.987847E-2	2.709402E-2	7.205661E-2	3.164702E-2
10/19/2017  17:27:26.144926	-1.188771E-1	2.082484E-2	1.646291E-2	-1.013887E+1	1.712873E-2	1.946206E-2	7.459952E-2	8.751773E-3
10/19/2017  17:27:26.145926	-2.027630E-1	2.082484E-2	1.900811E-2	-1.013632E+1	2.222863E-2	1.946206E-2	6.697081E-2	2.910311E-2
10/19/2017  17:27:26.146926	-4.671308E-1	1.828100E-2	3.173413E-2	-1.013123E+1	1.712873E-2	2.455003E-2	7.714242E-2	3.164702E-2
10/19/2017  17:27:26.147926	-3.247789E-1	5.561801E-3	2.664372E-2	-1.012869E+1	1.712873E-2	1.691808E-2	9.239983E-2	3.673486E-2
10/19/2017  17:27:26.148926	-5.103448E-1	4.741205E-4	1.137250E-2	-1.013123E+1	1.457878E-2	1.183011E-2	7.459952E-2	3.164702E-2
10/19/2017  17:27:26.149926	-4.010389E-1	1.828100E-2	1.137250E-2	-1.013632E+1	2.987847E-2	2.455003E-2	7.968532E-2	3.419094E-2
10/19/2017  17:27:26.150926	2.074867E+0	1.319332E-2	2.664372E-2	-1.013887E+1	2.987847E-2	2.709402E-2	7.459952E-2	2.401527E-2
10/19/2017  17:27:26.151926	9.973469E-2	1.573716E-2	2.664372E-2	-1.013887E+1	1.967868E-2	2.709402E-2	7.205661E-2	3.164702E-2
10/19/2017  17:27:26.152926	-5.993147E-1	8.105642E-3	1.391770E-2	-1.012614E+1	1.829045E-3	1.691808E-2	7.968532E-2	2.910311E-2
10/19/2017  17:27:26.153926	-2.663130E-1	1.573716E-2	1.646291E-2	-1.012869E+1	2.477858E-2	1.691808E-2	7.714242E-2	3.673486E-2
10/19/2017  17:27:26.154926	2.827585E-1	1.828100E-2	8.827299E-3	-1.014142E+1	2.987847E-2	1.183011E-2	7.205661E-2	2.147136E-2
10/19/2017  17:27:26.155926	6.462642E-1	3.017961E-3	1.646291E-2	-1.013378E+1	2.222863E-2	1.946206E-2	7.205661E-2	2.401527E-2
10/19/2017  17:27:26.156926	6.132182E-1	1.064948E-2	1.900811E-2	-1.013632E+1	2.477858E-2	2.455003E-2	7.459952E-2	3.164702E-2
10/19/2017  17:27:26.157926	4.556144E-1	1.828100E-2	1.900811E-2	-1.013378E+1	1.457878E-2	1.946206E-2	8.222822E-2	2.655919E-2
10/19/2017  17:27:26.158926	5.242483E-1	5.561801E-3	1.391770E-2	-1.013378E+1	2.222863E-2	6.742135E-3	7.714242E-2	2.910311E-2
10/19/2017  17:27:26.159926	2.802165E-1	2.336868E-2	1.137250E-2	-1.014396E+1	3.752832E-2	2.455003E-2	6.951371E-2	3.419094E-2
10/19/2017  17:27:26.160926	2.601676E-2	1.828100E-2	1.391770E-2	-1.013123E+1	1.967868E-2	2.200605E-2	7.205661E-2	2.910311E-2
10/19/2017  17:27:26.161926	-5.786917E-2	4.741205E-4	1.900811E-2	-1.013887E+1	2.732853E-2	1.946206E-2	7.714242E-2	2.655919E-2
10/19/2017  17:27:26.162926	-6.041116E-2	1.319332E-2	1.900811E-2	-1.014905E+1	2.222863E-2	1.946206E-2	7.714242E-2	3.164702E-2
10/19/2017  17:27:26.163926	-1.211321E-2	1.319332E-2	2.155331E-2	-1.013123E+1	1.712873E-2	1.691808E-2	7.205661E-2	4.182269E-2
10/19/2017  17:27:26.164926	3.285145E-1	2.082484E-2	1.391770E-2	-1.012869E+1	2.987847E-2	2.455003E-2	6.951371E-2	3.419094E-2
10/19/2017  17:27:26.165926	3.768124E-1	1.064948E-2	1.646291E-2	-1.013632E+1	1.202884E-2	2.709402E-2	6.697081E-2	1.892744E-2
10/19/2017  17:27:26.166926	-1.417551E-1	1.319332E-2	1.646291E-2	-1.012869E+1	1.967868E-2	2.709402E-2	7.714242E-2	2.910311E-2
10/19/2017  17:27:26.167926	-3.400309E-1	1.573716E-2	2.409852E-2	-1.013632E+1	1.712873E-2	2.455003E-2	7.459952E-2	3.927877E-2
10/19/2017  17:27:26.168926	-1.061671E-1	1.064948E-2	1.646291E-2	-1.014651E+1	1.967868E-2	1.183011E-2	6.951371E-2	4.182269E-2
								
10/19/2017  17:27:26.169926	-9.571210E-3	4.741205E-4	1.646291E-2	-1.012869E+1	2.732853E-2	1.691808E-2	6.951371E-2	3.419094E-2
10/19/2017  17:27:26.170926	-3.244919E-2	2.082484E-2	1.646291E-2	-1.012105E+1	2.732853E-2	3.726996E-2	7.459952E-2	2.401527E-2
10/19/2017  17:27:26.171926	8.222774E-3	2.591253E-2	2.155331E-2	-1.014905E+1	1.457878E-2	2.709402E-2	7.714242E-2	2.401527E-2
10/19/2017  17:27:26.172926	5.397873E-2	1.064948E-2	2.155331E-2	-1.014651E+1	1.457878E-2	1.437409E-2	7.205661E-2	2.910311E-2
10/19/2017  17:27:26.173926	-1.719720E-2	5.561801E-3	2.155331E-2	-1.013378E+1	2.477858E-2	2.455003E-2	7.459952E-2	3.164702E-2
10/19/2017  17:27:26.174926	-4.213748E-1	8.105642E-3	1.646291E-2	-1.012869E+1	2.222863E-2	1.946206E-2	7.459952E-2	3.673486E-2
10/19/2017  17:27:26.175926	-3.959549E-1	1.064948E-2	8.827299E-3	-1.013887E+1	1.967868E-2	2.455003E-2	7.459952E-2	2.910311E-2
10/19/2017  17:27:26.176926	-3.349469E-1	1.573716E-2	8.827299E-3	-1.014905E+1	2.222863E-2	2.200605E-2	8.985693E-2	3.164702E-2
10/19/2017  17:27:26.177926	-9.345713E-2	1.319332E-2	3.173413E-2	-1.014142E+1	2.732853E-2	3.472597E-2	7.459952E-2	2.910311E-2
10/19/2017  17:27:26.178926	-8.535144E-1	2.591253E-2	2.409852E-2	-1.013887E+1	1.967868E-2	1.946206E-2	7.459952E-2	3.164702E-2
10/19/2017  17:27:26.179926	2.776745E-1	1.319332E-2	1.391770E-2	-1.012869E+1	1.202884E-2	1.437409E-2	8.222822E-2	2.655919E-2
10/19/2017  17:27:26.180926	3.463085E-1	1.064948E-2	1.646291E-2	-1.012614E+1	2.477858E-2	1.437409E-2	7.459952E-2	3.927877E-2
10/19/2017  17:27:26.181926	2.318899E+0	5.561801E-3	1.137250E-2	-1.012359E+1	2.987847E-2	2.455003E-2	6.697081E-2	3.164702E-2
10/19/2017  17:27:26.182926	1.607426E-1	2.082484E-2	1.137250E-2	-1.014651E+1	2.222863E-2	2.709402E-2	6.951371E-2	3.164702E-2
10/19/2017  17:27:26.183926	-5.532717E-2	1.828100E-2	1.900811E-2	-1.013378E+1	2.477858E-2	3.981394E-2	7.205661E-2	2.147136E-2
10/19/2017  17:27:26.184926	1.073607E-1	3.354405E-2	1.900811E-2	-1.014905E+1	1.202884E-2	2.455003E-2	8.222822E-2	3.164702E-2
10/19/2017  17:27:26.185926	-2.586870E-1	8.105642E-3	2.409852E-2	-1.013378E+1	1.457878E-2	6.742135E-3	8.222822E-2	3.164702E-2
10/19/2017  17:27:26.186926	-1.620911E-1	-9.701241E-3	2.155331E-2	-1.013887E+1	1.457878E-2	1.691808E-2	7.205661E-2	3.673486E-2
10/19/2017  17:27:26.187926	5.906273E-2	1.573716E-2	1.391770E-2	-1.013632E+1	2.732853E-2	2.200605E-2	7.205661E-2	3.164702E-2
10/19/2017  17:27:26.188926	2.446286E-1	1.573716E-2	1.391770E-2	-1.013378E+1	1.712873E-2	2.455003E-2	7.205661E-2	3.419094E-2
10/19/2017  17:27:26.189926	-9.091514E-2	1.828100E-2	1.391770E-2	-1.013632E+1	2.222863E-2	2.455003E-2	7.459952E-2	3.164702E-2
10/19/2017  17:27:26.190926	-2.790230E-1	1.319332E-2	2.409852E-2	-1.013887E+1	1.712873E-2	1.946206E-2	7.714242E-2	3.673486E-2
10/19/2017  17:27:26.191926	-2.230990E-1	8.105642E-3	1.646291E-2	-1.013123E+1	1.967868E-2	1.437409E-2	7.205661E-2	3.164702E-2
10/19/2017  17:27:26.192926	-2.078470E-1	1.064948E-2	1.137250E-2	-1.013887E+1	1.202884E-2	2.455003E-2	6.188501E-2	2.655919E-2
10/19/2017  17:27:26.193926	3.818964E-1	1.828100E-2	6.282096E-3	-1.013632E+1	2.987847E-2	2.709402E-2	6.951371E-2	2.401527E-2
10/19/2017  17:27:26.194926	5.064543E-1	2.336868E-2	2.155331E-2	-1.013887E+1	1.967868E-2	2.709402E-2	7.459952E-2	3.927877E-2
10/19/2017  17:27:26.195926	2.420866E-1	8.105642E-3	3.173413E-2	-1.012614E+1	1.457878E-2	2.200605E-2	7.205661E-2	3.673486E-2
10/19/2017  17:27:26.196926	2.878425E-1	3.017961E-3	1.900811E-2	-1.012614E+1	1.967868E-2	1.437409E-2	7.459952E-2	2.910311E-2
10/19/2017  17:27:26.197926	3.513925E-1	1.573716E-2	1.900811E-2	-1.011850E+1	2.477858E-2	2.963800E-2	7.459952E-2	3.419094E-2
10/19/2017  17:27:26.198926	4.124004E-1	1.828100E-2	1.900811E-2	-1.013632E+1	1.712873E-2	1.946206E-2	7.714242E-2	3.164702E-2
10/19/2017  17:27:26.199926	8.222774E-3	2.082484E-2	1.900811E-2	-1.015415E+1	1.967868E-2	1.691808E-2	6.951371E-2	2.910311E-2
10/19/2017  17:27:26.200926	-3.222369E-1	8.105642E-3	3.173413E-2	-1.013887E+1	1.457878E-2	2.963800E-2	8.222822E-2	3.419094E-2
10/19/2017  17:27:26.201926	-2.637710E-1	1.064948E-2	1.900811E-2	-1.013378E+1	2.477858E-2	1.437409E-2	7.459952E-2	3.927877E-2
								
10/19/2017  17:27:26.202926	5.064543E-1	1.828100E-2	1.191689E-3	-1.013378E+1	2.222863E-2	1.183011E-2	6.951371E-2	3.419094E-2
10/19/2017  17:27:26.203926	5.420423E-1	1.064948E-2	1.391770E-2	-1.014142E+1	2.477858E-2	1.946206E-2	8.731403E-2	3.419094E-2
10/19/2017  17:27:26.204926	1.912466E-1	2.082484E-2	3.427933E-2	-1.014142E+1	2.477858E-2	3.472597E-2	7.459952E-2	2.910311E-2
10/19/2017  17:27:26.205926	6.160473E-2	2.845637E-2	2.155331E-2	-1.013887E+1	2.222863E-2	2.709402E-2	8.222822E-2	2.655919E-2
10/19/2017  17:27:26.206926	1.175287E-1	1.064948E-2	2.409852E-2	-1.014142E+1	1.202884E-2	9.286120E-3	8.222822E-2	3.673486E-2
10/19/2017  17:27:26.207926	-8.837314E-2	1.319332E-2	1.646291E-2	-1.013632E+1	2.477858E-2	1.691808E-2	7.459952E-2	3.164702E-2
10/19/2017  17:27:26.208926	7.685671E-2	1.319332E-2	1.391770E-2	-1.013123E+1	2.477858E-2	2.709402E-2	7.205661E-2	3.419094E-2
10/19/2017  17:27:26.209926	9.973469E-2	5.561801E-3	1.137250E-2	-1.013378E+1	1.967868E-2	2.455003E-2	6.951371E-2	2.910311E-2
10/19/2017  17:27:26.210926	-2.027630E-1	1.828100E-2	1.900811E-2	-1.013632E+1	2.222863E-2	2.963800E-2	7.459952E-2	1.892744E-2
10/19/2017  17:27:26.211926	1.007228E+0	3.100021E-2	1.646291E-2	-1.014651E+1	1.712873E-2	2.709402E-2	8.222822E-2	3.419094E-2
10/19/2017  17:27:26.212926	1.655437E+0	1.573716E-2	2.918892E-2	-1.013632E+1	1.457878E-2	1.183011E-2	7.968532E-2	2.910311E-2
10/19/2017  17:27:26.213926	-1.433090E+0	3.017961E-3	1.646291E-2	-1.013887E+1	1.457878E-2	1.691808E-2	6.951371E-2	3.164702E-2
10/19/2017  17:27:26.214926	-1.875398E+0	1.064948E-2	1.646291E-2	-1.014396E+1	2.732853E-2	2.455003E-2	7.205661E-2	3.164702E-2
10/19/2017  17:27:26.215926	-7.518345E-1	2.336868E-2	1.391770E-2	-1.013887E+1	4.262821E-2	2.963800E-2	7.205661E-2	2.147136E-2
10/19/2017  17:27:26.216926	3.872675E-2	2.082484E-2	2.409852E-2	-1.013887E+1	1.457878E-2	2.455003E-2	8.222822E-2	2.401527E-2
10/19/2017  17:27:26.217926	5.064543E-1	1.064948E-2	2.918892E-2	-1.011850E+1	1.712873E-2	1.437409E-2	7.968532E-2	3.419094E-2
10/19/2017  17:27:26.218926	8.394560E-1	5.561801E-3	2.664372E-2	-1.011850E+1	2.222863E-2	1.691808E-2	7.205661E-2	3.673486E-2
10/19/2017  17:27:26.219926	5.598363E-1	1.064948E-2	1.646291E-2	-1.013632E+1	1.967868E-2	1.437409E-2	6.188501E-2	2.401527E-2
10/19/2017  17:27:26.220926	3.717284E-1	1.064948E-2	3.736893E-3	-1.014905E+1	2.732853E-2	1.946206E-2	6.951371E-2	2.910311E-2
10/19/2017  17:27:26.221926	3.107205E-1	2.591253E-2	2.155331E-2	-1.014142E+1	2.222863E-2	2.963800E-2	7.459952E-2	3.927877E-2
10/19/2017  17:27:26.222926	5.013703E-1	1.828100E-2	2.664372E-2	-1.012614E+1	1.202884E-2	2.963800E-2	8.222822E-2	2.655919E-2
10/19/2017  17:27:26.223926	4.556144E-1	1.064948E-2	1.900811E-2	-1.014142E+1	1.202884E-2	1.691808E-2	7.968532E-2	3.673486E-2
10/19/2017  17:27:26.224926	2.420866E-1	8.105642E-3	2.155331E-2	-1.011341E+1	1.967868E-2	1.691808E-2	7.714242E-2	3.927877E-2
10/19/2017  17:27:26.225926	8.623340E-1	1.828100E-2	2.155331E-2	-1.013378E+1	2.222863E-2	1.183011E-2	6.697081E-2	2.910311E-2
10/19/2017  17:27:26.226926	9.210870E-2	2.082484E-2	1.137250E-2	-1.016178E+1	2.477858E-2	2.200605E-2	6.697081E-2	2.401527E-2
10/19/2017  17:27:26.227926	-1.303448E+0	1.319332E-2	3.173413E-2	-1.014651E+1	1.712873E-2	2.455003E-2	8.222822E-2	3.419094E-2
10/19/2017  17:27:26.228926	-1.415296E+0	8.105642E-3	2.155331E-2	-1.013378E+1	1.712873E-2	1.691808E-2	8.477112E-2	3.673486E-2
10/19/2017  17:27:26.229926	-3.095269E-1	2.082484E-2	2.918892E-2	-1.013378E+1	2.732853E-2	1.691808E-2	7.968532E-2	2.910311E-2
10/19/2017  17:27:26.230926	4.378204E-1	1.064948E-2	1.137250E-2	-1.013887E+1	2.477858E-2	1.946206E-2	5.934210E-2	2.910311E-2
10/19/2017  17:27:26.231926	1.810786E-1	1.064948E-2	1.900811E-2	-1.013123E+1	1.712873E-2	2.963800E-2	6.442791E-2	2.655919E-2
10/19/2017  17:27:26.232926	1.378647E-1	2.591253E-2	1.900811E-2	-1.013887E+1	2.222863E-2	2.455003E-2	7.459952E-2	2.655919E-2
10/19/2017  17:27:26.233926	2.446286E-1	1.319332E-2	1.646291E-2	-1.013378E+1	1.457878E-2	1.437409E-2	7.968532E-2	2.910311E-2
10/19/2017  17:27:26.234926	-5.024317E-2	1.573716E-2	1.646291E-2	-1.013378E+1	2.477858E-2	1.437409E-2	7.459952E-2	2.910311E-2
								
10/19/2017  17:27:26.235926	-1.973920E-2	1.319332E-2	1.646291E-2	-1.013378E+1	2.477858E-2	3.981394E-2	6.697081E-2	3.927877E-2
10/19/2017  17:27:26.236926	-1.112511E-1	2.845637E-2	1.646291E-2	-1.013378E+1	1.712873E-2	2.200605E-2	6.951371E-2	2.655919E-2
10/19/2017  17:27:26.237926	4.225684E-1	1.319332E-2	1.646291E-2	-1.013632E+1	2.477858E-2	9.286120E-3	7.205661E-2	2.401527E-2
10/19/2017  17:27:26.238926	3.872675E-2	-2.069720E-3	1.900811E-2	-1.014651E+1	2.987847E-2	1.946206E-2	7.968532E-2	2.910311E-2
10/19/2017  17:27:26.239926	-2.841070E-1	8.105642E-3	2.155331E-2	-1.012869E+1	2.732853E-2	1.691808E-2	6.697081E-2	3.673486E-2
10/19/2017  17:27:26.240926	-2.154730E-1	1.319332E-2	1.137250E-2	-1.013378E+1	2.477858E-2	2.200605E-2	6.697081E-2	2.655919E-2
10/19/2017  17:27:26.241926	-3.244919E-2	1.573716E-2	1.900811E-2	-1.013887E+1	2.222863E-2	2.455003E-2	7.459952E-2	2.401527E-2
10/19/2017  17:27:26.242926	-8.074715E-2	1.319332E-2	1.646291E-2	-1.013887E+1	3.752832E-2	2.200605E-2	7.459952E-2	2.401527E-2
10/19/2017  17:27:26.243926	-1.010831E-1	1.828100E-2	2.664372E-2	-1.014142E+1	2.222863E-2	2.200605E-2	7.205661E-2	3.164702E-2
10/19/2017  17:27:26.244926	7.177272E-2	8.105642E-3	1.646291E-2	-1.012869E+1	1.202884E-2	1.691808E-2	6.951371E-2	2.655919E-2
10/19/2017  17:27:26.245926	6.414672E-2	1.573716E-2	1.137250E-2	-1.013123E+1	2.477858E-2	2.455003E-2	7.205661E-2	2.910311E-2
10/19/2017  17:27:26.246926	-2.358090E-1	2.082484E-2	1.900811E-2	-1.014651E+1	1.967868E-2	2.709402E-2	7.714242E-2	2.147136E-2
10/19/2017  17:27:26.247926	-8.837314E-2	1.319332E-2	1.646291E-2	-1.013887E+1	1.457878E-2	1.691808E-2	7.459952E-2	3.164702E-2
10/19/2017  17:27:26.248926	5.217063E-1	5.561801E-3	2.155331E-2	-1.013123E+1	1.967868E-2	1.946206E-2	7.205661E-2	4.436661E-2
10/19/2017  17:27:26.249926	9.919759E-1	1.319332E-2	8.827299E-3	-1.012105E+1	2.477858E-2	2.709402E-2	6.697081E-2	3.164702E-2
10/19/2017  17:27:26.250926	6.462642E-1	2.082484E-2	1.391770E-2	-1.013887E+1	2.222863E-2	2.709402E-2	7.205661E-2	1.892744E-2
10/19/2017  17:27:26.251926	-2.228120E-2	1.319332E-2	2.409852E-2	-1.014651E+1	1.712873E-2	9.286120E-3	8.222822E-2	3.164702E-2
10/19/2017  17:27:26.252926	-4.671308E-1	5.561801E-3	2.409852E-2	-1.013123E+1	2.222863E-2	1.946206E-2	7.205661E-2	3.164702E-2
10/19/2017  17:27:26.253926	-1.341291E-1	1.573716E-2	1.137250E-2	-1.013378E+1	2.987847E-2	2.963800E-2	7.714242E-2	3.164702E-2
10/19/2017  17:27:26.254926	-3.857869E-1	1.319332E-2	6.282096E-3	-1.013887E+1	1.712873E-2	1.946206E-2	7.714242E-2	2.147136E-2
10/19/2017  17:27:26.255926	3.844384E-1	1.573716E-2	2.664372E-2	-1.013632E+1	1.712873E-2	2.455003E-2	7.459952E-2	2.910311E-2
10/19/2017  17:27:26.256926	5.420423E-1	1.573716E-2	3.173413E-2	-1.013378E+1	2.987847E-2	1.946206E-2	7.459952E-2	4.182269E-2
10/19/2017  17:27:26.257926	-2.990719E-2	5.561801E-3	1.900811E-2	-1.012869E+1	2.732853E-2	1.183011E-2	5.934210E-2	3.164702E-2
10/19/2017  17:27:26.258926	3.285145E-1	2.082484E-2	6.282096E-3	-1.013887E+1	2.222863E-2	3.472597E-2	6.951371E-2	2.401527E-2
10/19/2017  17:27:26.259926	5.750883E-1	2.845637E-2	2.155331E-2	-1.013887E+1	2.477858E-2	2.709402E-2	7.459952E-2	2.401527E-2
10/19/2017  17:27:26.260926	-2.990719E-2	1.064948E-2	2.409852E-2	-1.013887E+1	1.712873E-2	1.691808E-2	8.222822E-2	2.910311E-2
10/19/2017  17:27:26.261926	-6.120247E-1	-2.069720E-3	1.900811E-2	-1.013378E+1	1.967868E-2	1.946206E-2	7.205661E-2	3.927877E-2
10/19/2017  17:27:26.262926	8.699600E-1	1.064948E-2	1.646291E-2	-1.013123E+1	2.477858E-2	3.218199E-2	7.459952E-2	3.673486E-2
10/19/2017  17:27:26.263926	1.233466E+0	1.828100E-2	1.646291E-2	-1.012869E+1	2.222863E-2	1.946206E-2	7.459952E-2	3.419094E-2
10/19/2017  17:27:26.264926	-9.091514E-2	1.828100E-2	1.646291E-2	-1.013632E+1	1.967868E-2	1.691808E-2	7.459952E-2	1.638352E-2
10/19/2017  17:27:26.265926	-3.654509E-1	8.105642E-3	1.391770E-2	-1.014396E+1	2.987847E-2	2.455003E-2	7.459952E-2	3.164702E-2
10/19/2017  17:27:26.266926	-1.697171E-1	1.319332E-2	1.900811E-2	-1.013632E+1	2.222863E-2	2.455003E-2	7.205661E-2	3.419094E-2
10/19/2017  17:27:26.267926	-5.532717E-2	1.319332E-2	1.900811E-2	-1.012359E+1	2.477858E-2	2.200605E-2	7.714242E-2	2.655919E-2
								
10/19/2017  17:27:26.268926	-2.230990E-1	2.082484E-2	1.646291E-2	-1.014651E+1	2.477858E-2	2.455003E-2	7.714242E-2	3.164702E-2
10/19/2017  17:27:26.269926	-2.230990E-1	1.573716E-2	2.664372E-2	-1.013123E+1	1.967868E-2	1.946206E-2	7.968532E-2	4.182269E-2
10/19/2017  17:27:26.270926	-4.264588E-1	8.105642E-3	2.664372E-2	-1.011850E+1	2.477858E-2	1.691808E-2	7.459952E-2	3.927877E-2
10/19/2017  17:27:26.271926	5.827143E-1	8.105642E-3	1.900811E-2	-1.013887E+1	2.222863E-2	1.946206E-2	7.714242E-2	2.147136E-2
10/19/2017  17:27:26.272926	5.293323E-1	8.105642E-3	1.391770E-2	-1.014396E+1	2.222863E-2	1.946206E-2	7.968532E-2	2.401527E-2
10/19/2017  17:27:26.273926	-4.391688E-1	1.064948E-2	1.900811E-2	-1.013632E+1	2.222863E-2	2.200605E-2	7.459952E-2	3.673486E-2
10/19/2017  17:27:26.274926	-2.841070E-1	1.064948E-2	2.664372E-2	-1.013632E+1	2.222863E-2	2.455003E-2	7.459952E-2	3.927877E-2
10/19/2017  17:27:26.275926	-1.875110E-1	5.561801E-3	2.155331E-2	-1.013632E+1	2.222863E-2	1.691808E-2	7.714242E-2	3.164702E-2
10/19/2017  17:27:26.276926	-3.400309E-1	1.319332E-2	1.391770E-2	-1.011596E+1	2.732853E-2	2.200605E-2	7.714242E-2	3.164702E-2
10/19/2017  17:27:26.277926	-2.968170E-1	1.319332E-2	1.391770E-2	-1.014142E+1	2.222863E-2	2.455003E-2	6.951371E-2	2.401527E-2
10/19/2017  17:27:26.278926	-1.417551E-1	1.828100E-2	2.409852E-2	-1.014396E+1	1.712873E-2	3.726996E-2	7.459952E-2	3.419094E-2
10/19/2017  17:27:26.279926	-7.057916E-2	8.105642E-3	1.391770E-2	-1.013123E+1	1.457878E-2	1.946206E-2	8.222822E-2	3.927877E-2
10/19/2017  17:27:26.280926	1.124447E-1	8.105642E-3	8.827299E-3	-1.012869E+1	2.222863E-2	1.437409E-2	8.477112E-2	3.927877E-2
10/19/2017  17:27:26.281926	1.533421E+0	1.319332E-2	1.391770E-2	-1.013378E+1	2.732853E-2	1.946206E-2	7.205661E-2	3.164702E-2
10/19/2017  17:27:26.282926	1.063152E+0	1.064948E-2	2.155331E-2	-1.013887E+1	2.477858E-2	2.200605E-2	8.222822E-2	3.419094E-2
10/19/2017  17:27:26.283926	-1.707626E+0	2.082484E-2	2.918892E-2	-1.014396E+1	2.222863E-2	1.691808E-2	7.205661E-2	3.164702E-2
10/19/2017  17:27:26.284926	-2.053337E+0	2.591253E-2	2.664372E-2	-1.014651E+1	1.202884E-2	2.963800E-2	7.968532E-2	2.910311E-2
10/19/2017  17:27:26.285926	1.482581E+0	5.561801E-3	2.155331E-2	-1.012869E+1	1.712873E-2	1.691808E-2	7.968532E-2	3.419094E-2
10/19/2017  17:27:26.286926	1.304642E+0	8.105642E-3	1.900811E-2	-1.013632E+1	2.222863E-2	1.691808E-2	7.714242E-2	4.182269E-2
10/19/2017  17:27:26.287926	-1.252608E+0	8.105642E-3	8.827299E-3	-1.012869E+1	3.242842E-2	3.472597E-2	6.697081E-2	3.927877E-2
10/19/2017  17:27:26.288926	9.258839E-1	3.017961E-3	1.137250E-2	-1.014651E+1	3.242842E-2	2.963800E-2	7.205661E-2	2.147136E-2
10/19/2017  17:27:26.289926	1.358024E+0	1.828100E-2	1.646291E-2	-1.014905E+1	2.477858E-2	1.691808E-2	7.714242E-2	1.638352E-2
10/19/2017  17:27:26.290926	-3.883289E-1	2.591253E-2	1.900811E-2	-1.013887E+1	1.712873E-2	2.455003E-2	7.205661E-2	3.419094E-2
10/19/2017  17:27:26.291926	-5.789787E-1	1.319332E-2	2.664372E-2	-1.014142E+1	1.967868E-2	2.200605E-2	7.459952E-2	3.419094E-2
10/19/2017  17:27:26.292926	2.497126E-1	-9.701241E-3	1.900811E-2	-1.013378E+1	9.478889E-3	1.437409E-2	7.205661E-2	3.673486E-2
10/19/2017  17:27:26.293926	6.160473E-2	1.319332E-2	1.391770E-2	-1.012869E+1	1.967868E-2	2.455003E-2	7.968532E-2	3.419094E-2
10/19/2017  17:27:26.294926	3.946064E-1	1.064948E-2	1.646291E-2	-1.013123E+1	1.967868E-2	1.691808E-2	7.205661E-2	4.182269E-2
10/19/2017  17:27:26.295926	9.462199E-1	2.082484E-2	1.391770E-2	-1.015160E+1	2.222863E-2	2.709402E-2	7.205661E-2	2.655919E-2
10/19/2017  17:27:26.296926	8.702470E-2	1.573716E-2	2.664372E-2	-1.014396E+1	9.478889E-3	2.963800E-2	8.222822E-2	1.892744E-2
10/19/2017  17:27:26.297926	-8.583114E-2	1.573716E-2	2.155331E-2	-1.013887E+1	1.457878E-2	2.963800E-2	8.477112E-2	3.927877E-2
10/19/2017  17:27:26.298926	-4.722148E-1	8.105642E-3	1.646291E-2	-1.013378E+1	1.712873E-2	1.183011E-2	8.222822E-2	4.436661E-2
10/19/2017  17:27:26.299926	-7.772545E-1	5.561801E-3	3.736893E-3	-1.013378E+1	2.732853E-2	1.437409E-2	7.205661E-2	3.419094E-2
10/19/2017  17:27:26.300926	-5.052608E-1	1.573716E-2	1.646291E-2	-1.014396E+1	2.477858E-2	2.963800E-2	7.205661E-2	3.419094E-2
								
10/19/2017  17:27:26.301926	2.802165E-1	2.082484E-2	1.900811E-2	-1.012614E+1	1.967868E-2	3.726996E-2	7.714242E-2	2.655919E-2
10/19/2017  17:27:26.302926	6.615162E-1	1.064948E-2	1.900811E-2	-1.013887E+1	1.202884E-2	1.946206E-2	8.222822E-2	1.892744E-2
10/19/2017  17:27:26.303926	7.504861E-1	1.064948E-2	2.155331E-2	-1.014142E+1	1.712873E-2	1.183011E-2	7.205661E-2	4.182269E-2
10/19/2017  17:27:26.304926	6.360962E-1	5.561801E-3	1.391770E-2	-1.013123E+1	2.987847E-2	1.691808E-2	6.697081E-2	3.927877E-2
10/19/2017  17:27:26.305926	5.395003E-1	1.064948E-2	1.900811E-2	-1.013887E+1	2.477858E-2	2.963800E-2	7.714242E-2	3.164702E-2
10/19/2017  17:27:26.306926	1.429487E-1	1.064948E-2	8.827299E-3	-1.014142E+1	1.712873E-2	1.946206E-2	7.714242E-2	2.401527E-2
10/19/2017  17:27:26.307926	-3.883289E-1	1.319332E-2	1.900811E-2	-1.013887E+1	2.222863E-2	2.200605E-2	8.222822E-2	3.164702E-2
10/19/2017  17:27:26.308926	8.448270E-2	8.105642E-3	2.664372E-2	-1.012869E+1	1.712873E-2	1.437409E-2	8.477112E-2	3.673486E-2
10/19/2017  17:27:26.309926	1.251547E-1	8.105642E-3	1.646291E-2	-1.013632E+1	2.222863E-2	1.691808E-2	6.188501E-2	3.419094E-2
10/19/2017  17:27:26.310926	-2.790230E-1	1.828100E-2	6.282096E-3	-1.013887E+1	1.457878E-2	3.218199E-2	7.459952E-2	3.164702E-2
10/19/2017  17:27:26.311926	-2.307250E-1	2.591253E-2	1.646291E-2	-1.013632E+1	1.712873E-2	2.455003E-2	7.459952E-2	3.419094E-2
10/19/2017  17:27:26.312926	1.759946E-1	2.082484E-2	1.646291E-2	-1.013632E+1	2.222863E-2	2.455003E-2	7.714242E-2	2.655919E-2
10/19/2017  17:27:26.313926	-1.061671E-1	5.561801E-3	1.391770E-2	-1.014905E+1	1.202884E-2	1.946206E-2	7.968532E-2	3.164702E-2
10/19/2017  17:27:26.314926	9.973469E-2	8.105642E-3	2.155331E-2	-1.012614E+1	2.222863E-2	2.709402E-2	7.459952E-2	4.691052E-2
10/19/2017  17:27:26.315926	3.208885E-1	1.828100E-2	1.137250E-2	-1.012614E+1	2.477858E-2	1.691808E-2	6.697081E-2	3.673486E-2
10/19/2017  17:27:26.316926	1.912466E-1	1.319332E-2	1.137250E-2	-1.013887E+1	2.732853E-2	1.183011E-2	7.205661E-2	2.401527E-2
10/19/2017  17:27:26.317926	2.141246E-1	4.117557E-2	1.391770E-2	-1.014905E+1	2.987847E-2	2.709402E-2	7.459952E-2	2.910311E-2
10/19/2017  17:27:26.318926	2.242926E-1	2.082484E-2	2.664372E-2	-1.013887E+1	1.457878E-2	2.963800E-2	8.222822E-2	3.673486E-2
10/19/2017  17:27:26.319926	2.064986E-1	1.319332E-2	2.918892E-2	-1.013887E+1	4.378993E-3	1.691808E-2	7.714242E-2	4.182269E-2
10/19/2017  17:27:26.320926	1.836206E-1	1.064948E-2	1.391770E-2	-1.013378E+1	1.967868E-2	1.437409E-2	7.714242E-2	3.927877E-2
10/19/2017  17:27:26.321926	1.076477E-2	1.319332E-2	1.900811E-2	-1.013378E+1	2.477858E-2	2.200605E-2	7.714242E-2	3.164702E-2
10/19/2017  17:27:26.322926	4.047744E-1	1.573716E-2	1.391770E-2	-1.013378E+1	2.732853E-2	1.946206E-2	6.697081E-2	2.910311E-2
10/19/2017  17:27:26.323926	-2.228120E-2	1.828100E-2	1.900811E-2	-1.014651E+1	1.457878E-2	2.963800E-2	6.951371E-2	2.147136E-2
10/19/2017  17:27:26.324926	1.226127E-1	1.828100E-2	2.918892E-2	-1.013887E+1	1.457878E-2	2.709402E-2	7.205661E-2	3.419094E-2
10/19/2017  17:27:26.325926	1.106366E+0	1.573716E-2	1.646291E-2	-1.014396E+1	9.478889E-3	2.200605E-2	7.205661E-2	2.910311E-2
10/19/2017  17:27:26.326926	5.166223E-1	8.105642E-3	6.282096E-3	-1.014651E+1	2.477858E-2	1.437409E-2	7.205661E-2	3.927877E-2
10/19/2017  17:27:26.327926	-9.043544E-1	1.319332E-2	1.391770E-2	-1.013378E+1	2.987847E-2	1.946206E-2	6.951371E-2	4.436661E-2
10/19/2017  17:27:26.328926	-1.262776E+0	1.573716E-2	1.646291E-2	-1.013632E+1	2.987847E-2	2.709402E-2	7.714242E-2	2.401527E-2
10/19/2017  17:27:26.329926	-9.958663E-1	1.828100E-2	1.391770E-2	-1.014651E+1	1.457878E-2	2.200605E-2	8.222822E-2	2.401527E-2
10/19/2017  17:27:26.330926	-5.891467E-1	1.573716E-2	2.409852E-2	-1.015669E+1	1.712873E-2	9.286120E-3	7.714242E-2	3.164702E-2
10/19/2017  17:27:26.331926	-3.679929E-1	1.573716E-2	2.409852E-2	-1.012869E+1	2.477858E-2	1.691808E-2	7.459952E-2	3.927877E-2
10/19/2017  17:27:26.332926	-1.442971E-1	8.105642E-3	1.391770E-2	-1.012869E+1	2.732853E-2	2.200605E-2	5.934210E-2	3.164702E-2
10/19/2017  17:27:26.333926	5.967806E-4	1.573716E-2	8.827299E-3	-1.014142E+1	2.477858E-2	2.963800E-2	6.951371E-2	2.147136E-2
								
10/19/2017  17:27:26.334926	-3.832449E-1	2.591253E-2	2.664372E-2	-1.014651E+1	2.477858E-2	2.963800E-2	8.731403E-2	2.401527E-2
10/19/2017  17:27:26.335926	1.785366E-1	2.336868E-2	2.918892E-2	-1.013632E+1	2.222863E-2	1.946206E-2	7.968532E-2	3.673486E-2
10/19/2017  17:27:26.336926	5.369583E-1	5.561801E-3	1.646291E-2	-1.013378E+1	1.712873E-2	1.691808E-2	6.188501E-2	3.673486E-2
10/19/2017  17:27:26.337926	7.886161E-1	1.064948E-2	2.155331E-2	-1.012614E+1	2.987847E-2	6.742135E-3	6.697081E-2	2.910311E-2
10/19/2017  17:27:26.338926	6.488062E-1	2.336868E-2	1.137250E-2	-1.014142E+1	3.242842E-2	2.200605E-2	6.697081E-2	1.892744E-2
10/19/2017  17:27:26.339926	4.759504E-1	1.828100E-2	2.664372E-2	-1.013632E+1	9.478889E-3	3.981394E-2	8.222822E-2	2.910311E-2
10/19/2017  17:27:26.340926	2.624225E-1	1.319332E-2	2.409852E-2	-1.012869E+1	1.457878E-2	1.691808E-2	7.968532E-2	3.673486E-2
10/19/2017  17:27:26.341926	2.093276E-2	8.105642E-3	1.900811E-2	-1.012614E+1	1.967868E-2	2.963800E-2	6.951371E-2	4.182269E-2
10/19/2017  17:27:26.342926	-1.951370E-1	1.319332E-2	8.827299E-3	-1.014905E+1	2.222863E-2	2.200605E-2	6.951371E-2	2.401527E-2
10/19/2017  17:27:26.343926	-2.332670E-1	1.828100E-2	1.646291E-2	-1.014142E+1	1.967868E-2	2.200605E-2	7.459952E-2	1.638352E-2
10/19/2017  17:27:26.344926	2.395446E-1	3.100021E-2	1.646291E-2	-1.014142E+1	2.222863E-2	1.946206E-2	7.205661E-2	2.910311E-2
10/19/2017  17:27:26.345926	6.488062E-1	1.064948E-2	1.646291E-2	-1.012614E+1	1.202884E-2	2.455003E-2	8.222822E-2	3.164702E-2
10/19/2017  17:27:26.346926	3.971484E-1	1.064948E-2	1.900811E-2	-1.012614E+1	1.967868E-2	1.691808E-2	7.205661E-2	3.164702E-2
10/19/2017  17:27:26.347926	1.327807E-1	1.064948E-2	1.391770E-2	-1.013887E+1	2.477858E-2	2.709402E-2	6.951371E-2	3.419094E-2
10/19/2017  17:27:26.348926	4.149424E-1	2.082484E-2	1.646291E-2	-1.013632E+1	2.477858E-2	2.455003E-2	6.951371E-2	2.910311E-2
10/19/2017  17:27:26.349926	3.364275E-2	1.828100E-2	2.155331E-2	-1.013887E+1	1.457878E-2	2.709402E-2	7.968532E-2	2.147136E-2
10/19/2017  17:27:26.350926	-5.484747E-1	1.319332E-2	2.664372E-2	-1.013887E+1	4.378993E-3	1.691808E-2	7.459952E-2	4.436661E-2
10/19/2017  17:27:26.351926	-5.713527E-1	8.105642E-3	1.900811E-2	-1.012359E+1	1.967868E-2	1.691808E-2	7.714242E-2	3.927877E-2
10/19/2017  17:27:26.352926	-8.328914E-2	1.573716E-2	2.409852E-2	-1.013632E+1	2.477858E-2	1.946206E-2	7.714242E-2	3.164702E-2
10/19/2017  17:27:26.353926	3.259725E-1	1.064948E-2	3.736893E-3	-1.013123E+1	2.477858E-2	2.200605E-2	7.205661E-2	3.164702E-2
10/19/2017  17:27:26.354926	6.691422E-1	1.828100E-2	1.646291E-2	-1.013887E+1	2.222863E-2	2.963800E-2	7.714242E-2	1.638352E-2
10/19/2017  17:27:26.355926	6.030502E-1	1.573716E-2	2.918892E-2	-1.011850E+1	1.457878E-2	2.709402E-2	8.731403E-2	3.164702E-2
10/19/2017  17:27:26.356926	-3.069849E-1	2.336868E-2	1.391770E-2	-1.013378E+1	1.967868E-2	2.200605E-2	7.459952E-2	3.419094E-2
10/19/2017  17:27:26.357926	-3.857869E-1	1.319332E-2	1.391770E-2	-1.014651E+1	2.222863E-2	1.183011E-2	7.205661E-2	3.164702E-2
10/19/2017  17:27:26.358926	-3.501989E-1	1.064948E-2	2.155331E-2	-1.013378E+1	2.732853E-2	1.946206E-2	6.697081E-2	3.164702E-2
10/19/2017  17:27:26.359926	3.513925E-1	1.573716E-2	1.900811E-2	-1.013887E+1	1.712873E-2	3.218199E-2	7.205661E-2	2.401527E-2
10/19/2017  17:27:26.360926	7.860741E-1	1.064948E-2	1.646291E-2	-1.013632E+1	1.202884E-2	1.946206E-2	8.222822E-2	2.910311E-2
10/19/2017  17:27:26.361926	-8.583114E-2	1.319332E-2	1.646291E-2	-1.012869E+1	2.222863E-2	1.437409E-2	7.968532E-2	2.910311E-2
10/19/2017  17:27:26.362926	6.437222E-1	1.064948E-2	2.155331E-2	-1.012869E+1	3.497837E-2	2.455003E-2	6.697081E-2	3.164702E-2
10/19/2017  17:27:26.363926	1.454906E-1	1.064948E-2	1.137250E-2	-1.014142E+1	2.732853E-2	2.709402E-2	6.951371E-2	2.401527E-2
10/19/2017  17:27:26.364926	-9.475684E-1	1.573716E-2	8.827299E-3	-1.014142E+1	1.712873E-2	1.691808E-2	7.459952E-2	3.673486E-2
10/19/2017  17:27:26.365926	-8.179265E-1	2.082484E-2	2.664372E-2	-1.013632E+1	1.967868E-2	2.200605E-2	8.222822E-2	3.164702E-2
10/19/2017  17:27:26.366926	-4.391688E-1	1.064948E-2	2.409852E-2	-1.013378E+1	1.967868E-2	2.455003E-2	7.459952E-2	3.419094E-2
								
10/19/2017  17:27:26.367926	-2.736519E-2	4.741205E-4	1.900811E-2	-1.013632E+1	3.497837E-2	1.437409E-2	7.459952E-2	3.927877E-2
10/19/2017  17:27:26.368926	3.946064E-1	1.319332E-2	1.137250E-2	-1.013378E+1	2.987847E-2	4.235793E-2	6.697081E-2	3.164702E-2
10/19/2017  17:27:26.369926	-3.501989E-1	2.845637E-2	2.155331E-2	-1.013123E+1	3.242842E-2	2.200605E-2	7.205661E-2	3.164702E-2
10/19/2017  17:27:26.370926	-9.958663E-1	1.828100E-2	1.646291E-2	-1.014651E+1	2.477858E-2	2.709402E-2	7.205661E-2	2.910311E-2
10/19/2017  17:27:26.371926	-4.696728E-1	4.741205E-4	2.664372E-2	-1.015160E+1	1.202884E-2	2.200605E-2	8.222822E-2	3.419094E-2
10/19/2017  17:27:26.372926	2.446286E-1	5.561801E-3	1.646291E-2	-1.012614E+1	2.477858E-2	1.691808E-2	7.714242E-2	4.182269E-2
10/19/2017  17:27:26.373926	5.700043E-1	1.573716E-2	1.900811E-2	-1.014651E+1	3.497837E-2	1.946206E-2	6.442791E-2	2.655919E-2
10/19/2017  17:27:26.374926	1.480326E-1	1.064948E-2	6.282096E-3	-1.013632E+1	1.967868E-2	1.437409E-2	7.459952E-2	3.164702E-2
10/19/2017  17:27:26.375926	-1.442971E-1	2.082484E-2	1.900811E-2	-1.013887E+1	3.497837E-2	2.709402E-2	7.459952E-2	2.655919E-2
10/19/2017  17:27:26.376926	7.174401E-1	1.064948E-2	2.664372E-2	-1.014396E+1	1.457878E-2	1.946206E-2	7.714242E-2	2.910311E-2
10/19/2017  17:27:26.377926	2.341777E+0	8.105642E-3	2.155331E-2	-1.013123E+1	1.457878E-2	1.437409E-2	8.477112E-2	3.673486E-2
10/19/2017  17:27:26.378926	-2.228120E-2	8.105642E-3	1.137250E-2	-1.013632E+1	2.222863E-2	1.437409E-2	7.968532E-2	3.419094E-2
10/19/2017  17:27:26.379926	-3.247789E-1	1.573716E-2	1.391770E-2	-1.013378E+1	2.732853E-2	2.455003E-2	7.205661E-2	4.182269E-2
10/19/2017  17:27:26.380926	-4.798408E-1	2.082484E-2	1.900811E-2	-1.013632E+1	2.222863E-2	2.455003E-2	7.205661E-2	2.655919E-2
10/19/2017  17:27:26.381926	-2.027630E-1	8.105642E-3	2.155331E-2	-1.013378E+1	1.457878E-2	2.455003E-2	8.222822E-2	2.655919E-2
10/19/2017  17:27:26.382926	7.352341E-1	1.064948E-2	2.664372E-2	-1.011086E+1	1.712873E-2	1.946206E-2	8.477112E-2	3.927877E-2
10/19/2017  17:27:26.383926	8.953800E-1	1.319332E-2	1.137250E-2	-1.013123E+1	2.987847E-2	1.183011E-2	6.951371E-2	2.147136E-2
10/19/2017  17:27:26.384926	1.861626E-1	2.082484E-2	1.391770E-2	-1.015924E+1	2.477858E-2	1.437409E-2	5.679920E-2	2.655919E-2
10/19/2017  17:27:26.385926	2.141246E-1	1.064948E-2	3.173413E-2	-1.013887E+1	1.457878E-2	3.218199E-2	7.714242E-2	3.164702E-2
10/19/2017  17:27:26.386926	1.195336E+0	1.319332E-2	2.155331E-2	-1.013887E+1	1.457878E-2	2.200605E-2	9.239983E-2	3.419094E-2
10/19/2017  17:27:26.387926	-1.211321E-2	1.319332E-2	8.827299E-3	-1.013632E+1	1.457878E-2	1.946206E-2	6.951371E-2	3.164702E-2
10/19/2017  17:27:26.388926	-8.865604E-1	8.105642E-3	2.155331E-2	-1.013632E+1	2.222863E-2	1.437409E-2	6.442791E-2	3.927877E-2
10/19/2017  17:27:26.389926	1.960477E+0	1.319332E-2	2.155331E-2	-1.013887E+1	3.497837E-2	2.709402E-2	6.951371E-2	3.419094E-2
10/19/2017  17:27:26.390926	1.202962E+0	1.828100E-2	1.900811E-2	-1.013887E+1	1.967868E-2	2.200605E-2	7.714242E-2	2.147136E-2
10/19/2017  17:27:26.391926	-2.460057E+0	2.082484E-2	8.827299E-3	-1.013632E+1	1.457878E-2	2.709402E-2	7.714242E-2	2.655919E-2
10/19/2017  17:27:26.392926	-1.509350E+0	2.336868E-2	2.155331E-2	-1.014651E+1	1.967868E-2	1.691808E-2	7.968532E-2	3.419094E-2
10/19/2017  17:27:26.393926	2.802165E-1	1.573716E-2	1.900811E-2	-1.013378E+1	2.477858E-2	3.981394E-2	7.459952E-2	3.673486E-2
10/19/2017  17:27:26.394926	2.522546E-1	-2.069720E-3	1.900811E-2	-1.014142E+1	1.457878E-2	1.946206E-2	7.205661E-2	3.164702E-2
10/19/2017  17:27:26.395926	4.886603E-1	1.064948E-2	1.137250E-2	-1.012869E+1	2.732853E-2	1.946206E-2	7.205661E-2	2.910311E-2
10/19/2017  17:27:26.396926	2.624225E-1	3.100021E-2	1.137250E-2	-1.013123E+1	3.497837E-2	2.455003E-2	7.205661E-2	2.147136E-2
10/19/2017  17:27:26.397926	4.073164E-1	2.336868E-2	2.155331E-2	-1.014905E+1	2.222863E-2	2.709402E-2	7.714242E-2	2.655919E-2
10/19/2017  17:27:26.398926	2.878425E-1	8.105642E-3	2.409852E-2	-1.013887E+1	1.202884E-2	1.946206E-2	7.968532E-2	2.655919E-2
10/19/2017  17:27:26.399926	-7.950485E-1	1.573716E-2	2.155331E-2	-1.013632E+1	1.967868E-2	2.200605E-2	7.205661E-2	3.673486E-2
								
10/19/2017  17:27:26.400926	-9.958663E-1	5.561801E-3	1.900811E-2	-1.013887E+1	2.222863E-2	1.691808E-2	7.714242E-2	3.673486E-2
10/19/2017  17:27:26.401926	-5.789787E-1	1.573716E-2	1.137250E-2	-1.014905E+1	3.242842E-2	1.946206E-2	6.697081E-2	3.164702E-2
10/19/2017  17:27:26.402926	-1.697171E-1	1.064948E-2	1.646291E-2	-1.014142E+1	1.457878E-2	2.963800E-2	6.188501E-2	3.419094E-2
10/19/2017  17:27:26.403926	2.090406E-1	1.064948E-2	2.409852E-2	-1.013378E+1	1.967868E-2	2.963800E-2	7.714242E-2	2.910311E-2
10/19/2017  17:27:26.404926	5.064543E-1	1.064948E-2	2.155331E-2	-1.013887E+1	1.457878E-2	1.946206E-2	7.968532E-2	2.401527E-2
10/19/2017  17:27:26.405926	8.038681E-1	8.105642E-3	1.900811E-2	-1.013887E+1	1.712873E-2	1.691808E-2	7.714242E-2	3.673486E-2
10/19/2017  17:27:26.406926	6.106762E-1	8.105642E-3	1.137250E-2	-1.012869E+1	2.732853E-2	1.946206E-2	6.951371E-2	3.419094E-2
10/19/2017  17:27:26.407926	1.276967E-1	1.319332E-2	1.391770E-2	-1.013378E+1	2.732853E-2	2.455003E-2	6.697081E-2	2.401527E-2
10/19/2017  17:27:26.408926	-1.265031E-1	1.828100E-2	1.900811E-2	-1.014396E+1	1.712873E-2	2.963800E-2	7.205661E-2	2.401527E-2
10/19/2017  17:27:26.409926	3.872675E-2	1.573716E-2	2.664372E-2	-1.011850E+1	1.457878E-2	1.946206E-2	8.985693E-2	3.673486E-2
10/19/2017  17:27:26.410926	2.598805E-1	1.319332E-2	1.391770E-2	-1.013887E+1	2.222863E-2	2.455003E-2	7.459952E-2	3.673486E-2
10/19/2017  17:27:26.411926	1.836206E-1	1.064948E-2	1.391770E-2	-1.015160E+1	2.222863E-2	9.286120E-3	6.951371E-2	2.910311E-2
10/19/2017  17:27:26.412926	-5.789787E-1	4.741205E-4	1.191689E-3	-1.013632E+1	2.222863E-2	1.946206E-2	7.459952E-2	3.164702E-2
10/19/2017  17:27:26.413926	-4.722148E-1	2.336868E-2	1.646291E-2	-1.014651E+1	2.222863E-2	2.963800E-2	8.731403E-2	2.910311E-2
10/19/2017  17:27:26.414926	1.861339E+0	1.573716E-2	3.173413E-2	-1.013887E+1	1.202884E-2	1.946206E-2	8.222822E-2	3.419094E-2
10/19/2017  17:27:26.415926	6.208442E-1	8.105642E-3	1.900811E-2	-1.013632E+1	2.222863E-2	2.200605E-2	7.459952E-2	3.673486E-2
10/19/2017  17:27:26.416926	-1.095004E+0	8.105642E-3	3.173413E-2	-1.012869E+1	2.222863E-2	2.200605E-2	7.459952E-2	3.164702E-2
10/19/2017  17:27:26.417926	-4.772988E-1	5.561801E-3	1.137250E-2	-1.014142E+1	2.477858E-2	1.946206E-2	6.951371E-2	3.164702E-2
10/19/2017  17:27:26.418926	1.887046E-1	1.828100E-2	8.827299E-3	-1.014142E+1	1.202884E-2	9.286120E-3	7.459952E-2	3.419094E-2
10/19/2017  17:27:26.419926	2.115826E-1	2.336868E-2	1.900811E-2	-1.014396E+1	2.222863E-2	2.709402E-2	7.459952E-2	3.164702E-2
10/19/2017  17:27:26.420926	5.143673E-2	1.319332E-2	2.664372E-2	-1.013378E+1	1.457878E-2	3.726996E-2	8.222822E-2	3.927877E-2
10/19/2017  17:27:26.421926	2.649645E-1	4.741205E-4	1.900811E-2	-1.013123E+1	1.712873E-2	1.437409E-2	7.459952E-2	3.419094E-2
10/19/2017  17:27:26.422926	3.618475E-2	1.064948E-2	1.391770E-2	-1.013887E+1	1.712873E-2	9.286120E-3	7.205661E-2	2.655919E-2
10/19/2017  17:27:26.423926	1.584877E-2	5.561801E-3	1.646291E-2	-1.014396E+1	2.732853E-2	2.455003E-2	7.968532E-2	2.655919E-2
10/19/2017  17:27:26.424926	9.973469E-2	2.082484E-2	2.155331E-2	-1.013887E+1	2.222863E-2	1.437409E-2	7.968532E-2	2.401527E-2
10/19/2017  17:27:26.425926	2.598805E-1	8.105642E-3	2.664372E-2	-1.014142E+1	1.457878E-2	2.200605E-2	7.714242E-2	3.419094E-2
10/19/2017  17:27:26.426926	3.386825E-1	1.064948E-2	1.900811E-2	-1.012359E+1	2.222863E-2	1.691808E-2	7.459952E-2	3.673486E-2
10/19/2017  17:27:26.427926	6.666002E-1	8.105642E-3	8.827299E-3	-1.012614E+1	2.477858E-2	1.437409E-2	6.951371E-2	2.910311E-2
10/19/2017  17:27:26.428926	6.208442E-1	2.082484E-2	1.137250E-2	-1.014396E+1	2.732853E-2	2.455003E-2	6.697081E-2	2.401527E-2
10/19/2017  17:27:26.429926	2.980105E-1	1.828100E-2	2.664372E-2	-1.014396E+1	9.478889E-3	2.963800E-2	6.697081E-2	1.892744E-2
10/19/2017  17:27:26.430926	-1.163351E-1	1.064948E-2	2.918892E-2	-1.013632E+1	1.457878E-2	2.200605E-2	8.477112E-2	3.673486E-2
10/19/2017  17:27:26.431926	-2.968170E-1	5.561801E-3	1.646291E-2	-1.013378E+1	1.967868E-2	1.437409E-2	7.459952E-2	3.164702E-2
10/19/2017  17:27:26.432926	-5.815207E-1	1.064948E-2	6.282096E-3	-1.013887E+1	2.987847E-2	1.437409E-2	7.205661E-2	3.419094E-2
								
10/19/2017  17:27:26.433926	-3.349469E-1	1.064948E-2	1.646291E-2	-1.014396E+1	2.732853E-2	2.455003E-2	7.714242E-2	4.691052E-2
10/19/2017  17:27:26.434926	-2.942750E-1	2.082484E-2	2.155331E-2	-1.012869E+1	2.222863E-2	2.963800E-2	7.205661E-2	3.164702E-2
10/19/2017  17:27:26.435926	-3.222369E-1	1.064948E-2	1.900811E-2	-1.013887E+1	1.457878E-2	1.946206E-2	7.968532E-2	1.638352E-2
10/19/2017  17:27:26.436926	-4.261718E-2	1.064948E-2	1.900811E-2	-1.013632E+1	1.967868E-2	2.963800E-2	7.714242E-2	3.673486E-2
10/19/2017  17:27:26.437926	1.076477E-2	2.336868E-2	1.646291E-2	-1.014142E+1	3.242842E-2	1.946206E-2	6.697081E-2	3.419094E-2
10/19/2017  17:27:26.438926	3.158045E-1	1.828100E-2	1.646291E-2	-1.014142E+1	2.222863E-2	2.963800E-2	7.205661E-2	2.655919E-2
10/19/2017  17:27:26.439926	2.903845E-1	3.017961E-3	1.646291E-2	-1.014142E+1	1.967868E-2	1.946206E-2	7.714242E-2	3.164702E-2
10/19/2017  17:27:26.440926	1.531166E-1	1.828100E-2	1.646291E-2	-1.013887E+1	2.222863E-2	2.200605E-2	8.477112E-2	3.927877E-2
10/19/2017  17:27:26.441926	2.522546E-1	1.573716E-2	2.918892E-2	-1.013887E+1	2.477858E-2	1.437409E-2	7.205661E-2	3.164702E-2
10/19/2017  17:27:26.442926	4.962863E-1	1.064948E-2	1.900811E-2	-1.014396E+1	2.477858E-2	2.709402E-2	5.425630E-2	2.147136E-2
10/19/2017  17:27:26.443926	6.284702E-1	2.082484E-2	1.646291E-2	-1.014396E+1	1.202884E-2	2.963800E-2	7.205661E-2	3.164702E-2
10/19/2017  17:27:26.444926	-8.458885E-1	2.082484E-2	1.900811E-2	-1.013632E+1	1.967868E-2	1.946206E-2	7.968532E-2	3.673486E-2
10/19/2017  17:27:26.445926	-1.326326E+0	8.105642E-3	1.900811E-2	-1.012869E+1	2.222863E-2	9.286120E-3	7.459952E-2	3.673486E-2
10/19/2017  17:27:26.446926	-9.679043E-1	5.561801E-3	1.137250E-2	-1.014142E+1	2.477858E-2	2.455003E-2	6.697081E-2	3.164702E-2
10/19/2017  17:27:26.447926	-4.722148E-1	2.336868E-2	2.409852E-2	-1.013887E+1	2.222863E-2	3.472597E-2	7.459952E-2	2.910311E-2
10/19/2017  17:27:26.448926	1.048187E-1	2.336868E-2	1.646291E-2	-1.012869E+1	2.732853E-2	2.200605E-2	7.714242E-2	3.164702E-2
10/19/2017  17:27:26.449926	6.005082E-1	1.319332E-2	1.900811E-2	-1.013378E+1	2.477858E-2	1.946206E-2	7.459952E-2	3.164702E-2
10/19/2017  17:27:26.450926	9.030060E-1	3.100021E-2	2.155331E-2	-1.012869E+1	1.967868E-2	1.691808E-2	6.951371E-2	3.164702E-2
10/19/2017  17:27:26.451926	8.928380E-1	1.828100E-2	1.646291E-2	-1.015160E+1	2.477858E-2	2.455003E-2	6.951371E-2	2.910311E-2
10/19/2017  17:27:26.452926	6.589742E-1	-4.613560E-3	1.900811E-2	-1.013123E+1	1.712873E-2	2.709402E-2	7.205661E-2	3.164702E-2
10/19/2017  17:27:26.453926	3.844384E-1	1.064948E-2	2.155331E-2	-1.013887E+1	2.477858E-2	2.200605E-2	8.222822E-2	3.164702E-2
10/19/2017  17:27:26.454926	-7.029213E-3	1.064948E-2	1.900811E-2	-1.012869E+1	3.497837E-2	1.691808E-2	7.714242E-2	3.164702E-2
10/19/2017  17:27:26.455926	-1.366711E-1	1.064948E-2	1.391770E-2	-1.011596E+1	1.457878E-2	1.946206E-2	7.714242E-2	2.910311E-2
10/19/2017  17:27:26.456926	2.093276E-2	1.573716E-2	1.900811E-2	-1.013632E+1	1.457878E-2	1.946206E-2	6.951371E-2	2.910311E-2
10/19/2017  17:27:26.457926	8.194071E-2	1.828100E-2	1.646291E-2	-1.012869E+1	1.967868E-2	2.963800E-2	7.714242E-2	2.910311E-2
10/19/2017  17:27:26.458926	1.022767E-1	1.573716E-2	1.900811E-2	-1.013632E+1	1.712873E-2	1.691808E-2	7.714242E-2	3.164702E-2
10/19/2017  17:27:26.459926	3.110075E-2	1.064948E-2	1.646291E-2	-1.014396E+1	2.222863E-2	1.437409E-2	7.205661E-2	3.927877E-2
10/19/2017  17:27:26.460926	-5.916887E-1	5.561801E-3	1.646291E-2	-1.013887E+1	2.732853E-2	1.691808E-2	6.951371E-2	4.182269E-2
10/19/2017  17:27:26.461926	-7.340406E-1	1.828100E-2	1.391770E-2	-1.012869E+1	2.477858E-2	2.455003E-2	7.459952E-2	2.401527E-2
10/19/2017  17:27:26.462926	1.502917E+0	2.591253E-2	1.391770E-2	-1.014396E+1	1.967868E-2	2.709402E-2	7.459952E-2	2.401527E-2
10/19/2017  17:27:26.463926	3.895224E-1	1.828100E-2	2.664372E-2	-1.014142E+1	1.457878E-2	3.218199E-2	7.714242E-2	3.164702E-2
10/19/2017  17:27:26.464926	-7.823385E-1	1.319332E-2	1.900811E-2	-1.013887E+1	2.477858E-2	1.946206E-2	7.459952E-2	3.164702E-2
10/19/2017  17:27:26.465926	5.445843E-1	1.064948E-2	1.900811E-2	-1.014396E+1	2.222863E-2	1.691808E-2	8.222822E-2	3.927877E-2
								
10/19/2017  17:27:26.466926	-5.786917E-2	1.828100E-2	2.664372E-2	-1.013632E+1	1.967868E-2	1.691808E-2	7.459952E-2	3.164702E-2
10/19/2017  17:27:26.467926	-6.832006E-1	2.591253E-2	1.900811E-2	-1.014142E+1	2.477858E-2	2.963800E-2	8.731403E-2	2.655919E-2
10/19/2017  17:27:26.468926	-7.162466E-1	2.082484E-2	2.918892E-2	-1.013632E+1	1.967868E-2	1.946206E-2	7.459952E-2	3.164702E-2
10/19/2017  17:27:26.469926	-2.205570E-1	1.573716E-2	2.664372E-2	-1.012869E+1	1.967868E-2	1.946206E-2	6.188501E-2	2.910311E-2
10/19/2017  17:27:26.470926	-7.029213E-3	8.105642E-3	6.282096E-3	-1.012869E+1	1.457878E-2	1.654165E-3	7.459952E-2	3.164702E-2
10/19/2017  17:27:26.471926	-2.736519E-2	1.573716E-2	1.391770E-2	-1.013378E+1	2.987847E-2	1.946206E-2	6.951371E-2	3.164702E-2
10/19/2017  17:27:26.472926	1.152122E+0	1.828100E-2	1.646291E-2	-1.013632E+1	2.987847E-2	3.981394E-2	7.714242E-2	2.655919E-2
10/19/2017  17:27:26.473926	3.132625E-1	2.336868E-2	2.409852E-2	-1.013887E+1	1.457878E-2	2.963800E-2	7.968532E-2	3.164702E-2
10/19/2017  17:27:26.474926	-7.823385E-1	1.573716E-2	2.409852E-2	-1.013378E+1	1.202884E-2	2.455003E-2	7.968532E-2	2.655919E-2
10/19/2017  17:27:26.475926	-7.162466E-1	5.561801E-3	1.900811E-2	-1.012614E+1	2.222863E-2	1.691808E-2	7.714242E-2	3.673486E-2
10/19/2017  17:27:26.476926	-3.807029E-1	1.319332E-2	1.391770E-2	-1.014142E+1	2.987847E-2	9.286120E-3	7.205661E-2	2.655919E-2
10/19/2017  17:27:26.477926	1.658266E-1	4.741205E-4	1.900811E-2	-1.014651E+1	2.987847E-2	2.455003E-2	7.459952E-2	3.164702E-2
10/19/2017  17:27:26.478926	4.200264E-1	1.828100E-2	2.155331E-2	-1.013632E+1	1.967868E-2	2.963800E-2	7.714242E-2	2.655919E-2
10/19/2017  17:27:26.479926	5.572943E-1	2.082484E-2	2.409852E-2	-1.014142E+1	1.457878E-2	2.455003E-2	8.222822E-2	2.910311E-2
10/19/2017  17:27:26.480926	5.903402E-1	1.319332E-2	1.900811E-2	-1.013632E+1	2.477858E-2	1.691808E-2	7.459952E-2	2.910311E-2
10/19/2017  17:27:26.481926	3.768124E-1	8.105642E-3	1.646291E-2	-1.013378E+1	1.457878E-2	1.437409E-2	7.205661E-2	3.673486E-2
10/19/2017  17:27:26.482926	1.480326E-1	1.064948E-2	1.900811E-2	-1.012105E+1	2.987847E-2	1.946206E-2	6.697081E-2	2.655919E-2
10/19/2017  17:27:26.483926	9.719269E-2	1.828100E-2	1.137250E-2	-1.014142E+1	9.478889E-3	2.963800E-2	6.697081E-2	2.147136E-2
10/19/2017  17:27:26.484926	1.709106E-1	1.573716E-2	1.137250E-2	-1.012614E+1	1.457878E-2	1.946206E-2	8.477112E-2	3.164702E-2
10/19/2017  17:27:26.485926	1.887046E-1	1.064948E-2	1.900811E-2	-1.012359E+1	2.222863E-2	1.437409E-2	7.459952E-2	4.945444E-2
10/19/2017  17:27:26.486926	2.827585E-1	1.064948E-2	1.391770E-2	-1.010323E+1	2.987847E-2	1.946206E-2	6.442791E-2	3.164702E-2
10/19/2017  17:27:26.487926	2.725905E-1	1.828100E-2	8.827299E-3	-1.014142E+1	2.477858E-2	2.455003E-2	6.951371E-2	1.129569E-2
10/19/2017  17:27:26.488926	2.675065E-1	2.082484E-2	2.918892E-2	-1.015415E+1	1.457878E-2	2.455003E-2	8.477112E-2	2.655919E-2
10/19/2017  17:27:26.489926	2.471706E-1	1.064948E-2	2.664372E-2	-1.012869E+1	1.967868E-2	1.183011E-2	7.459952E-2	3.673486E-2
10/19/2017  17:27:26.490926	-1.239611E-1	1.319332E-2	1.137250E-2	-1.014651E+1	2.987847E-2	1.691808E-2	6.188501E-2	2.910311E-2
10/19/2017  17:27:26.491926	-1.697171E-1	1.828100E-2	2.155331E-2	-1.014396E+1	2.222863E-2	3.218199E-2	8.222822E-2	2.910311E-2
10/19/2017  17:27:26.492926	-1.036251E-1	1.064948E-2	2.664372E-2	-1.013632E+1	1.457878E-2	1.946206E-2	8.477112E-2	2.655919E-2
10/19/2017  17:27:26.493926	-3.044429E-1	8.105642E-3	6.282096E-3	-1.013632E+1	2.477858E-2	2.200605E-2	7.968532E-2	2.910311E-2
10/19/2017  17:27:26.494926	1.099027E-1	1.319332E-2	1.137250E-2	-1.013378E+1	2.477858E-2	1.946206E-2	6.951371E-2	3.419094E-2
10/19/2017  17:27:26.495926	7.301501E-1	2.591253E-2	1.137250E-2	-1.013632E+1	2.222863E-2	3.472597E-2	7.459952E-2	2.655919E-2
10/19/2017  17:27:26.496926	-3.244919E-2	3.100021E-2	2.155331E-2	-1.013632E+1	1.457878E-2	2.963800E-2	7.714242E-2	3.164702E-2
10/19/2017  17:27:26.497926	-2.205570E-1	1.319332E-2	6.282096E-3	-1.013378E+1	1.967868E-2	9.286120E-3	7.968532E-2	3.419094E-2
10/19/2017  17:27:26.498926	3.920644E-1	2.082484E-2	1.646291E-2	-1.013123E+1	1.967868E-2	2.200605E-2	7.714242E-2	2.910311E-2
								
10/19/2017  17:27:26.499926	3.666444E-1	1.828100E-2	8.827299E-3	-1.013887E+1	2.222863E-2	2.963800E-2	6.951371E-2	2.401527E-2
10/19/2017  17:27:26.500926	-3.679929E-1	5.561801E-3	1.900811E-2	-1.014142E+1	1.967868E-2	2.200605E-2	7.205661E-2	3.419094E-2
10/19/2017  17:27:26.501926	-2.790230E-1	1.319332E-2	2.155331E-2	-1.013887E+1	1.967868E-2	1.946206E-2	8.222822E-2	2.401527E-2
10/19/2017  17:27:26.502926	-1.188771E-1	2.591253E-2	1.900811E-2	-1.012614E+1	2.987847E-2	1.691808E-2	7.968532E-2	2.910311E-2
10/19/2017  17:27:26.503926	-1.570071E-1	1.573716E-2	1.137250E-2	-1.013887E+1	2.732853E-2	1.946206E-2	7.205661E-2	3.164702E-2
10/19/2017  17:27:26.504926	1.861626E-1	1.319332E-2	1.900811E-2	-1.013123E+1	1.457878E-2	2.200605E-2	7.459952E-2	2.910311E-2
10/19/2017  17:27:26.505926	1.099027E-1	1.319332E-2	1.646291E-2	-1.013378E+1	2.222863E-2	2.455003E-2	7.459952E-2	3.164702E-2
10/19/2017  17:27:26.506926	-4.849248E-1	1.319332E-2	2.664372E-2	-1.013378E+1	2.732853E-2	1.691808E-2	8.731403E-2	3.673486E-2
10/19/2017  17:27:26.507926	-7.823385E-1	8.105642E-3	1.391770E-2	-1.013632E+1	1.967868E-2	2.455003E-2	7.459952E-2	3.164702E-2
10/19/2017  17:27:26.508926	-4.645888E-1	1.573716E-2	1.391770E-2	-1.013887E+1	4.262821E-2	1.946206E-2	7.205661E-2	3.419094E-2
10/19/2017  17:27:26.509926	2.102829E+0	1.573716E-2	2.409852E-2	-1.014142E+1	2.222863E-2	2.963800E-2	6.951371E-2	2.401527E-2
10/19/2017  17:27:26.510926	2.733244E+0	2.336868E-2	2.409852E-2	-1.013887E+1	4.378993E-3	2.709402E-2	7.459952E-2	2.401527E-2
10/19/2017  17:27:26.511926	-6.145667E-1	1.319332E-2	1.391770E-2	-1.013123E+1	1.457878E-2	1.691808E-2	8.222822E-2	3.673486E-2
10/19/2017  17:27:26.512926	-9.145224E-1	8.105642E-3	2.155331E-2	-1.013378E+1	2.477858E-2	1.691808E-2	7.968532E-2	4.436661E-2
10/19/2017  17:27:26.513926	-6.323606E-1	1.828100E-2	1.391770E-2	-1.012105E+1	2.732853E-2	2.709402E-2	7.205661E-2	2.910311E-2
10/19/2017  17:27:26.514926	-8.636824E-1	1.573716E-2	1.137250E-2	-1.014651E+1	1.457878E-2	2.200605E-2	7.714242E-2	2.655919E-2
10/19/2017  17:27:26.515926	-9.043544E-1	1.319332E-2	2.664372E-2	-1.013887E+1	1.457878E-2	1.946206E-2	8.477112E-2	3.673486E-2
10/19/2017  17:27:26.516926	-5.764367E-1	1.319332E-2	1.646291E-2	-1.013123E+1	2.222863E-2	1.691808E-2	7.459952E-2	3.673486E-2
10/19/2017  17:27:26.517926	-6.041116E-2	1.064948E-2	1.137250E-2	-1.015415E+1	3.242842E-2	1.437409E-2	6.697081E-2	3.673486E-2
10/19/2017  17:27:26.518926	6.310122E-1	1.319332E-2	2.664372E-2	-1.014142E+1	1.967868E-2	2.963800E-2	7.714242E-2	2.147136E-2
10/19/2017  17:27:26.519926	6.208442E-1	2.082484E-2	2.664372E-2	-1.013887E+1	1.457878E-2	1.946206E-2	9.239983E-2	3.164702E-2
10/19/2017  17:27:26.520926	4.301944E-1	1.573716E-2	1.137250E-2	-1.013123E+1	1.967868E-2	9.286120E-3	7.459952E-2	3.419094E-2
10/19/2017  17:27:26.521926	6.208442E-1	8.105642E-3	1.137250E-2	-1.013887E+1	2.477858E-2	1.946206E-2	5.934210E-2	3.164702E-2
10/19/2017  17:27:26.522926	3.869804E-1	1.828100E-2	1.137250E-2	-1.013887E+1	1.712873E-2	2.455003E-2	7.714242E-2	2.655919E-2
10/19/2017  17:27:26.523926	3.463085E-1	2.082484E-2	2.409852E-2	-1.013632E+1	1.457878E-2	1.946206E-2	8.477112E-2	3.164702E-2
10/19/2017  17:27:26.524926	4.174844E-1	8.105642E-3	8.827299E-3	-1.013378E+1	1.967868E-2	6.742135E-3	7.459952E-2	3.927877E-2
10/19/2017  17:27:26.525926	-5.024317E-2	2.082484E-2	1.137250E-2	-1.014142E+1	3.242842E-2	1.691808E-2	6.951371E-2	3.419094E-2
10/19/2017  17:27:26.526926	-3.501989E-1	2.082484E-2	1.646291E-2	-1.014651E+1	2.222863E-2	3.981394E-2	7.714242E-2	2.910311E-2
10/19/2017  17:27:26.527926	2.522546E-1	3.017961E-3	2.155331E-2	-1.013378E+1	9.478889E-3	2.200605E-2	7.968532E-2	2.910311E-2
10/19/2017  17:27:26.528926	-1.112511E-1	8.105642E-3	2.155331E-2	-1.013632E+1	1.457878E-2	9.286120E-3	7.459952E-2	3.164702E-2
10/19/2017  17:27:26.529926	-2.228120E-2	-7.157401E-3	1.137250E-2	-1.014651E+1	1.712873E-2	1.946206E-2	7.459952E-2	3.673486E-2
10/19/2017  17:27:26.530926	5.967806E-4	1.319332E-2	1.900811E-2	-1.013378E+1	2.222863E-2	2.455003E-2	7.205661E-2	3.419094E-2
10/19/2017  17:27:26.531926	1.124447E-1	1.064948E-2	1.646291E-2	-1.014651E+1	3.242842E-2	1.946206E-2	7.459952E-2	2.401527E-2
								
10/19/2017  17:27:26.532926	1.836206E-1	1.319332E-2	2.409852E-2	-1.013632E+1	2.222863E-2	2.200605E-2	8.222822E-2	2.910311E-2
10/19/2017  17:27:26.533926	2.751325E-1	1.319332E-2	1.900811E-2	-1.013123E+1	3.242842E-2	1.691808E-2	7.968532E-2	3.164702E-2
10/19/2017  17:27:26.534926	3.691864E-1	1.319332E-2	1.391770E-2	-1.013887E+1	2.477858E-2	2.200605E-2	6.697081E-2	2.910311E-2
10/19/2017  17:27:26.535926	3.056365E-1	2.336868E-2	2.155331E-2	-1.013887E+1	1.457878E-2	2.709402E-2	6.951371E-2	2.147136E-2
10/19/2017  17:27:26.536926	9.843499E-1	1.064948E-2	2.664372E-2	-1.013378E+1	1.712873E-2	2.200605E-2	8.477112E-2	3.164702E-2
10/19/2017  17:27:26.537926	7.835321E-1	5.561801E-3	1.900811E-2	-1.013378E+1	1.967868E-2	1.183011E-2	7.714242E-2	4.182269E-2
10/19/2017  17:27:26.538926	-2.764810E-1	8.105642E-3	8.827299E-3	-1.011341E+1	2.987847E-2	1.437409E-2	6.442791E-2	3.419094E-2
10/19/2017  17:27:26.539926	1.099027E-1	8.105642E-3	2.155331E-2	-1.013887E+1	1.712873E-2	2.963800E-2	7.714242E-2	2.147136E-2
10/19/2017  17:27:26.540926	-4.007518E-2	1.064948E-2	2.155331E-2	-1.012105E+1	1.712873E-2	2.455003E-2	7.968532E-2	3.164702E-2
10/19/2017  17:27:26.541926	-1.875110E-1	1.319332E-2	1.900811E-2	-1.014142E+1	1.712873E-2	1.946206E-2	8.477112E-2	2.147136E-2
10/19/2017  17:27:26.542926	1.302387E-1	1.064948E-2	1.900811E-2	-1.012105E+1	2.222863E-2	4.198150E-3	7.714242E-2	2.910311E-2
10/19/2017  17:27:26.543926	-6.679486E-1	1.573716E-2	1.646291E-2	-1.013887E+1	2.987847E-2	2.455003E-2	7.714242E-2	3.164702E-2
10/19/2017  17:27:26.544926	-2.002210E-1	1.573716E-2	1.391770E-2	-1.014905E+1	2.222863E-2	3.218199E-2	6.951371E-2	2.147136E-2
10/19/2017  17:27:26.545926	1.820667E+0	4.741205E-4	1.646291E-2	-1.013632E+1	1.202884E-2	1.946206E-2	8.477112E-2	2.655919E-2
10/19/2017  17:27:26.546926	-6.171087E-1	1.064948E-2	2.918892E-2	-1.013632E+1	1.457878E-2	1.183011E-2	7.205661E-2	3.927877E-2
10/19/2017  17:27:26.547926	-9.221484E-1	1.064948E-2	1.900811E-2	-1.013123E+1	2.987847E-2	1.946206E-2	7.205661E-2	3.927877E-2
10/19/2017  17:27:26.548926	1.576635E+0	1.319332E-2	1.391770E-2	-1.013378E+1	2.732853E-2	1.946206E-2	6.697081E-2	2.910311E-2
10/19/2017  17:27:26.549926	-2.129310E-1	2.082484E-2	1.900811E-2	-1.013887E+1	1.457878E-2	2.709402E-2	7.459952E-2	3.419094E-2
10/19/2017  17:27:26.550926	-7.416665E-1	2.845637E-2	2.155331E-2	-1.014396E+1	1.457878E-2	2.455003E-2	8.477112E-2	3.164702E-2
10/19/2017  17:27:26.551926	-1.671751E-1	5.561801E-3	2.664372E-2	-1.013632E+1	2.477858E-2	6.742135E-3	8.222822E-2	3.673486E-2
10/19/2017  17:27:26.552926	-5.993147E-1	-2.069720E-3	1.900811E-2	-1.013378E+1	1.967868E-2	1.691808E-2	7.205661E-2	4.182269E-2
10/19/2017  17:27:26.553926	-1.110256E+0	1.828100E-2	1.646291E-2	-1.013887E+1	2.732853E-2	2.963800E-2	6.951371E-2	2.910311E-2
10/19/2017  17:27:26.554926	-6.679486E-1	3.354405E-2	1.646291E-2	-1.013887E+1	2.477858E-2	2.455003E-2	7.459952E-2	2.401527E-2
10/19/2017  17:27:26.555926	2.547966E-1	1.319332E-2	2.409852E-2	-1.013887E+1	1.457878E-2	1.946206E-2	8.222822E-2	2.147136E-2
10/19/2017  17:27:26.556926	7.886161E-1	4.741205E-4	1.646291E-2	-1.013887E+1	1.202884E-2	1.437409E-2	7.205661E-2	3.927877E-2
10/19/2017  17:27:26.557926	2.547966E-1	1.064948E-2	1.646291E-2	-1.013632E+1	2.477858E-2	2.200605E-2	6.951371E-2	3.419094E-2
10/19/2017  17:27:26.558926	-2.078470E-1	1.064948E-2	1.646291E-2	-1.013887E+1	1.202884E-2	2.455003E-2	7.205661E-2	2.655919E-2
10/19/2017  17:27:26.559926	-5.205127E-1	1.319332E-2	2.409852E-2	-1.013632E+1	1.457878E-2	1.946206E-2	7.968532E-2	3.164702E-2
10/19/2017  17:27:26.560926	-5.967727E-1	1.064948E-2	2.155331E-2	-1.013632E+1	3.497837E-2	2.200605E-2	7.968532E-2	4.182269E-2
10/19/2017  17:27:26.561926	2.471706E-1	1.319332E-2	2.664372E-2	-1.014142E+1	1.712873E-2	2.200605E-2	7.205661E-2	3.419094E-2
10/19/2017  17:27:26.562926	5.928822E-1	2.082484E-2	1.137250E-2	-1.013887E+1	2.987847E-2	2.709402E-2	6.951371E-2	2.147136E-2
10/19/2017  17:27:26.563926	-4.290008E-1	2.082484E-2	1.391770E-2	-1.015415E+1	1.457878E-2	2.455003E-2	8.477112E-2	2.655919E-2
10/19/2017  17:27:26.564926	-5.866047E-1	5.561801E-3	2.918892E-2	-1.013378E+1	1.712873E-2	9.286120E-3	7.968532E-2	4.436661E-2
								
10/19/2017  17:27:26.565926	1.861626E-1	1.064948E-2	1.900811E-2	-1.012614E+1	1.967868E-2	1.691808E-2	7.205661E-2	3.164702E-2
10/19/2017  17:27:26.566926	7.733641E-1	1.064948E-2	1.646291E-2	-1.013123E+1	2.732853E-2	2.200605E-2	6.697081E-2	3.419094E-2
10/19/2017  17:27:26.567926	1.106366E+0	1.828100E-2	1.900811E-2	-1.011341E+1	1.967868E-2	3.218199E-2	7.459952E-2	2.401527E-2
10/19/2017  17:27:26.568926	9.614719E-1	2.845637E-2	2.155331E-2	-1.013123E+1	1.202884E-2	1.946206E-2	8.731403E-2	2.910311E-2
10/19/2017  17:27:26.569926	1.759946E-1	1.064948E-2	2.664372E-2	-1.014142E+1	1.202884E-2	6.742135E-3	6.697081E-2	4.182269E-2
10/19/2017  17:27:26.570926	-3.753318E-2	4.741205E-4	1.900811E-2	-1.012614E+1	3.242842E-2	1.437409E-2	6.951371E-2	3.419094E-2
10/19/2017  17:27:26.571926	-1.570071E-1	1.828100E-2	1.646291E-2	-1.014651E+1	2.732853E-2	2.200605E-2	7.968532E-2	2.147136E-2
10/19/2017  17:27:26.572926	-1.570071E-1	2.082484E-2	8.827299E-3	-1.014142E+1	1.712873E-2	2.455003E-2	7.714242E-2	2.147136E-2
10/19/2017  17:27:26.573926	1.076477E-2	1.064948E-2	2.664372E-2	-1.013632E+1	1.457878E-2	2.200605E-2	7.968532E-2	3.164702E-2
10/19/2017  17:27:26.574926	3.488505E-1	1.064948E-2	2.155331E-2	-1.013632E+1	2.477858E-2	9.286120E-3	7.205661E-2	3.673486E-2
10/19/2017  17:27:26.575926	4.479884E-1	1.064948E-2	1.900811E-2	-1.013887E+1	2.477858E-2	2.455003E-2	6.188501E-2	2.910311E-2
10/19/2017  17:27:26.576926	2.954685E-1	1.828100E-2	2.155331E-2	-1.014142E+1	1.202884E-2	1.183011E-2	7.459952E-2	2.401527E-2
10/19/2017  17:27:26.577926	-1.137931E-1	2.336868E-2	2.409852E-2	-1.013887E+1	1.457878E-2	2.709402E-2	7.459952E-2	3.164702E-2
10/19/2017  17:27:26.578926	-1.468391E-1	1.319332E-2	2.664372E-2	-1.013632E+1	1.967868E-2	3.472597E-2	7.459952E-2	3.673486E-2
10/19/2017  17:27:26.579926	8.369140E-1	-2.069720E-3	1.900811E-2	-1.013123E+1	1.967868E-2	1.437409E-2	7.459952E-2	3.673486E-2
10/19/2017  17:27:26.580926	4.200264E-1	1.573716E-2	1.391770E-2	-1.013632E+1	2.477858E-2	1.691808E-2	7.205661E-2	2.655919E-2
10/19/2017  17:27:26.581926	7.759061E-1	1.319332E-2	1.646291E-2	-1.014142E+1	2.987847E-2	1.946206E-2	7.459952E-2	2.147136E-2
10/19/2017  17:27:26.582926	4.381074E-2	1.319332E-2	1.646291E-2	-1.013378E+1	2.477858E-2	1.437409E-2	7.459952E-2	2.147136E-2
10/19/2017  17:27:26.583926	-1.199226E+0	-2.069720E-3	1.646291E-2	-1.014396E+1	2.987847E-2	2.200605E-2	7.459952E-2	4.182269E-2
10/19/2017  17:27:26.584926	-1.232272E+0	1.319332E-2	1.646291E-2	-1.013378E+1	2.222863E-2	1.946206E-2	7.459952E-2	3.164702E-2
10/19/2017  17:27:26.585926	-4.162908E-1	1.573716E-2	1.391770E-2	-1.013123E+1	4.517816E-2	2.709402E-2	7.205661E-2	1.638352E-2
10/19/2017  17:27:26.586926	6.869362E-1	2.336868E-2	2.155331E-2	-1.014651E+1	1.457878E-2	2.709402E-2	8.222822E-2	3.164702E-2
10/19/2017  17:27:26.587926	4.327364E-1	1.064948E-2	1.900811E-2	-1.013378E+1	1.829045E-3	2.200605E-2	7.459952E-2	4.691052E-2
10/19/2017  17:27:26.588926	2.039566E-1	8.105642E-3	2.664372E-2	-1.011850E+1	2.222863E-2	1.946206E-2	6.951371E-2	3.673486E-2
10/19/2017  17:27:26.589926	6.386382E-1	1.064948E-2	8.827299E-3	-1.013887E+1	2.987847E-2	1.437409E-2	7.205661E-2	1.892744E-2
10/19/2017  17:27:26.590926	7.352341E-1	1.319332E-2	1.391770E-2	-1.013887E+1	2.222863E-2	2.963800E-2	7.714242E-2	2.401527E-2
10/19/2017  17:27:26.591926	-5.484747E-1	1.573716E-2	2.155331E-2	-1.013378E+1	2.477858E-2	1.946206E-2	7.205661E-2	3.164702E-2
10/19/2017  17:27:26.592926	-8.204685E-1	1.064948E-2	2.155331E-2	-1.012869E+1	2.477858E-2	2.963800E-2	7.205661E-2	3.673486E-2
10/19/2017  17:27:26.593926	-4.467948E-1	8.105642E-3	1.391770E-2	-1.013887E+1	2.222863E-2	1.183011E-2	6.951371E-2	2.655919E-2
10/19/2017  17:27:26.594926	-2.332670E-1	2.082484E-2	1.391770E-2	-1.012614E+1	2.732853E-2	2.963800E-2	6.442791E-2	2.655919E-2
10/19/2017  17:27:26.595926	7.431471E-2	2.336868E-2	2.664372E-2	-1.013632E+1	2.732853E-2	2.963800E-2	7.968532E-2	3.164702E-2
10/19/2017  17:27:26.596926	2.039566E-1	1.064948E-2	1.900811E-2	-1.013378E+1	1.967868E-2	2.963800E-2	6.442791E-2	2.910311E-2
10/19/2017  17:27:26.597926	-4.770118E-2	-9.701241E-3	8.827299E-3	-1.013632E+1	1.967868E-2	9.286120E-3	7.459952E-2	3.164702E-2
								
10/19/2017  17:27:26.598926	1.887046E-1	1.319332E-2	1.137250E-2	-1.012869E+1	2.477858E-2	2.200605E-2	7.968532E-2	3.419094E-2
10/19/2017  17:27:26.599926	6.640582E-1	2.082484E-2	1.391770E-2	-1.013887E+1	2.222863E-2	2.200605E-2	7.459952E-2	2.147136E-2
10/19/2017  17:27:26.600926	7.047301E-1	1.573716E-2	2.664372E-2	-1.014142E+1	1.967868E-2	2.963800E-2	8.477112E-2	3.164702E-2
10/19/2017  17:27:26.601926	-1.465521E-2	1.064948E-2	3.427933E-2	-1.012869E+1	1.457878E-2	2.963800E-2	8.222822E-2	4.182269E-2
10/19/2017  17:27:26.602926	-1.468391E-1	1.064948E-2	1.900811E-2	-1.012359E+1	1.967868E-2	1.437409E-2	7.205661E-2	3.419094E-2
10/19/2017  17:27:26.603926	2.855876E-2	1.064948E-2	1.646291E-2	-1.013123E+1	2.732853E-2	6.742135E-3	7.205661E-2	2.655919E-2
10/19/2017  17:27:26.604926	2.446286E-1	5.561801E-3	1.646291E-2	-1.013887E+1	2.477858E-2	2.455003E-2	7.459952E-2	3.164702E-2
10/19/2017  17:27:26.605926	2.115826E-1	1.573716E-2	1.900811E-2	-1.013632E+1	2.477858E-2	4.490191E-2	7.714242E-2	3.164702E-2
10/19/2017  17:27:26.606926	-2.739390E-1	1.064948E-2	2.155331E-2	-1.014142E+1	1.202884E-2	2.200605E-2	7.714242E-2	2.655919E-2
10/19/2017  17:27:26.607926	-3.807029E-1	8.105642E-3	2.409852E-2	-1.012869E+1	1.712873E-2	2.963800E-2	8.222822E-2	3.673486E-2
10/19/2017  17:27:26.608926	2.473961E+0	2.082484E-2	1.900811E-2	-1.012869E+1	2.222863E-2	1.691808E-2	6.951371E-2	3.673486E-2
10/19/2017  17:27:26.609926	4.556144E-1	1.319332E-2	1.137250E-2	-1.013632E+1	2.732853E-2	1.183011E-2	7.205661E-2	3.164702E-2
10/19/2017  17:27:26.610926	-1.011118E+0	-2.069720E-3	1.900811E-2	-1.012869E+1	2.477858E-2	2.455003E-2	7.205661E-2	3.164702E-2
10/19/2017  17:27:26.611926	-1.496640E+0	1.828100E-2	1.646291E-2	-1.013887E+1	2.222863E-2	2.963800E-2	7.459952E-2	3.164702E-2
10/19/2017  17:27:26.612926	-3.258244E+0	1.573716E-2	2.409852E-2	-1.013378E+1	2.477858E-2	1.946206E-2	8.731403E-2	2.910311E-2
10/19/2017  17:27:26.613926	-2.058421E+0	8.105642E-3	2.664372E-2	-1.013887E+1	1.457878E-2	1.437409E-2	7.714242E-2	3.673486E-2
10/19/2017  17:27:26.614926	7.631961E-1	8.105642E-3	1.900811E-2	-1.013378E+1	9.478889E-3	1.691808E-2	7.205661E-2	3.419094E-2
10/19/2017  17:27:26.615926	6.414672E-2	1.319332E-2	2.155331E-2	-1.013123E+1	2.477858E-2	1.946206E-2	7.714242E-2	3.419094E-2
10/19/2017  17:27:26.616926	1.045358E+0	1.064948E-2	1.646291E-2	-1.013378E+1	2.222863E-2	2.200605E-2	6.697081E-2	2.147136E-2
10/19/2017  17:27:26.617926	1.642727E+0	2.082484E-2	1.137250E-2	-1.014142E+1	2.222863E-2	2.455003E-2	7.968532E-2	2.401527E-2
10/19/2017  17:27:26.618926	1.263970E+0	1.573716E-2	2.664372E-2	-1.013632E+1	2.222863E-2	1.691808E-2	7.714242E-2	4.182269E-2
10/19/2017  17:27:26.619926	1.248718E+0	1.319332E-2	2.409852E-2	-1.011341E+1	2.222863E-2	2.963800E-2	8.222822E-2	3.164702E-2
10/19/2017  17:27:26.620926	4.912023E-1	4.741205E-4	1.137250E-2	-1.012869E+1	2.477858E-2	1.691808E-2	7.205661E-2	2.401527E-2
10/19/2017  17:27:26.621926	4.530724E-1	1.828100E-2	1.900811E-2	-1.013632E+1	2.222863E-2	1.946206E-2	6.951371E-2	3.164702E-2
10/19/2017  17:27:26.622926	3.364275E-2	1.828100E-2	1.900811E-2	-1.013887E+1	2.987847E-2	2.455003E-2	6.697081E-2	3.164702E-2
10/19/2017  17:27:26.623926	-2.536030E-1	1.573716E-2	1.137250E-2	-1.013632E+1	1.967868E-2	1.946206E-2	6.951371E-2	2.655919E-2
10/19/2017  17:27:26.624926	9.640139E-1	1.064948E-2	1.646291E-2	-1.014142E+1	1.712873E-2	2.963800E-2	7.459952E-2	2.910311E-2
10/19/2017  17:27:26.625926	7.682801E-1	1.064948E-2	2.409852E-2	-1.014142E+1	1.457878E-2	2.200605E-2	8.985693E-2	3.164702E-2
10/19/2017  17:27:26.626926	2.903845E-1	1.573716E-2	3.682453E-2	-1.013378E+1	1.967868E-2	2.709402E-2	7.459952E-2	3.673486E-2
10/19/2017  17:27:26.627926	1.378647E-1	1.319332E-2	1.900811E-2	-1.014142E+1	1.712873E-2	1.946206E-2	7.205661E-2	2.910311E-2
10/19/2017  17:27:26.628926	-2.053050E-1	1.573716E-2	8.827299E-3	-1.013632E+1	2.222863E-2	2.455003E-2	7.459952E-2	3.164702E-2
10/19/2017  17:27:26.629926	-2.688550E-1	2.591253E-2	1.900811E-2	-1.013887E+1	2.222863E-2	2.709402E-2	7.459952E-2	2.655919E-2
10/19/2017  17:27:26.630926	-1.137931E-1	2.082484E-2	2.155331E-2	-1.014396E+1	1.457878E-2	4.235793E-2	7.968532E-2	2.910311E-2
								
10/19/2017  17:27:26.631926	-4.569628E-1	5.561801E-3	2.155331E-2	-1.013887E+1	9.478889E-3	2.455003E-2	7.968532E-2	3.927877E-2
10/19/2017  17:27:26.632926	-4.137488E-1	1.319332E-2	1.900811E-2	-1.014142E+1	1.457878E-2	2.709402E-2	8.222822E-2	4.182269E-2
10/19/2017  17:27:26.633926	-2.485190E-1	1.319332E-2	1.391770E-2	-1.012614E+1	2.477858E-2	1.691808E-2	6.697081E-2	3.419094E-2
10/19/2017  17:27:26.634926	-1.465521E-2	2.082484E-2	6.282096E-3	-1.013632E+1	2.732853E-2	9.286120E-3	6.951371E-2	2.147136E-2
10/19/2017  17:27:26.635926	-1.973920E-2	2.336868E-2	1.900811E-2	-1.015669E+1	2.477858E-2	2.709402E-2	7.205661E-2	2.910311E-2
10/19/2017  17:27:26.636926	-5.357647E-1	1.064948E-2	2.664372E-2	-1.013632E+1	1.457878E-2	2.455003E-2	8.222822E-2	4.182269E-2
10/19/2017  17:27:26.637926	-9.345713E-2	8.105642E-3	1.900811E-2	-1.013378E+1	1.967868E-2	1.691808E-2	8.477112E-2	3.927877E-2
10/19/2017  17:27:26.638926	7.021881E-1	1.064948E-2	1.391770E-2	-1.013632E+1	2.222863E-2	1.183011E-2	7.459952E-2	3.673486E-2
10/19/2017  17:27:26.639926	3.285145E-1	1.573716E-2	1.391770E-2	-1.013632E+1	3.497837E-2	2.455003E-2	7.459952E-2	3.673486E-2
10/19/2017  17:27:26.640926	6.615162E-1	1.319332E-2	1.391770E-2	-1.013378E+1	2.222863E-2	2.455003E-2	7.205661E-2	2.655919E-2
10/19/2017  17:27:26.641926	3.132625E-1	1.828100E-2	1.646291E-2	-1.013887E+1	9.478889E-3	2.200605E-2	7.205661E-2	3.673486E-2
10/19/2017  17:27:26.642926	-8.128425E-1	1.319332E-2	2.155331E-2	-1.013123E+1	1.457878E-2	2.200605E-2	8.477112E-2	3.164702E-2
10/19/2017  17:27:26.643926	-6.933686E-1	1.064948E-2	1.391770E-2	-1.013378E+1	2.477858E-2	1.437409E-2	8.222822E-2	3.673486E-2
10/19/2017  17:27:26.644926	-3.499119E-2	1.319332E-2	2.918892E-2	-1.014651E+1	1.967868E-2	1.946206E-2	7.205661E-2	3.164702E-2
10/19/2017  17:27:26.645926	5.903402E-1	1.064948E-2	1.646291E-2	-1.013887E+1	2.732853E-2	1.946206E-2	7.205661E-2	1.892744E-2
10/19/2017  17:27:26.646926	2.471706E-1	1.828100E-2	1.646291E-2	-1.013378E+1	2.222863E-2	3.472597E-2	7.968532E-2	2.147136E-2
10/19/2017  17:27:26.647926	1.881675E+0	1.064948E-2	2.409852E-2	-1.013887E+1	2.477858E-2	1.946206E-2	7.714242E-2	3.164702E-2
10/19/2017  17:27:26.648926	7.682801E-1	1.064948E-2	1.900811E-2	-1.014396E+1	2.222863E-2	2.200605E-2	7.205661E-2	3.164702E-2
10/19/2017  17:27:26.649926	-1.189058E+0	4.741205E-4	2.409852E-2	-1.013887E+1	2.222863E-2	2.200605E-2	7.459952E-2	3.419094E-2
10/19/2017  17:27:26.650926	-6.806586E-1	1.573716E-2	1.900811E-2	-1.013378E+1	2.477858E-2	1.946206E-2	7.459952E-2	3.164702E-2
10/19/2017  17:27:26.651926	-2.002210E-1	2.336868E-2	1.137250E-2	-1.014651E+1	1.712873E-2	2.455003E-2	7.714242E-2	2.910311E-2
10/19/2017  17:27:26.652926	-4.467948E-1	1.828100E-2	2.155331E-2	-1.013632E+1	1.712873E-2	2.200605E-2	8.731403E-2	3.164702E-2
10/19/2017  17:27:26.653926	-3.349469E-1	1.064948E-2	3.427933E-2	-1.013123E+1	2.732853E-2	2.200605E-2	7.459952E-2	4.182269E-2
10/19/2017  17:27:26.654926	-6.679486E-1	1.319332E-2	1.391770E-2	-1.012869E+1	2.222863E-2	1.183011E-2	6.697081E-2	3.164702E-2
10/19/2017  17:27:26.655926	-7.057916E-2	2.082484E-2	1.137250E-2	-1.014905E+1	1.967868E-2	2.200605E-2	6.697081E-2	2.655919E-2
10/19/2017  17:27:26.656926	5.750883E-1	1.828100E-2	1.646291E-2	-1.014142E+1	1.967868E-2	2.709402E-2	7.459952E-2	2.401527E-2
10/19/2017  17:27:26.657926	7.428601E-1	1.319332E-2	2.155331E-2	-1.013887E+1	2.222863E-2	1.437409E-2	7.968532E-2	3.164702E-2
10/19/2017  17:27:26.658926	1.505746E-1	8.105642E-3	1.646291E-2	-1.013887E+1	1.967868E-2	1.946206E-2	7.459952E-2	4.182269E-2
10/19/2017  17:27:26.659926	-2.688550E-1	5.561801E-3	1.900811E-2	-1.013887E+1	2.222863E-2	3.726996E-2	7.459952E-2	3.673486E-2
10/19/2017  17:27:26.660926	-1.719720E-2	3.100021E-2	1.391770E-2	-1.013632E+1	1.712873E-2	1.946206E-2	7.459952E-2	3.164702E-2
10/19/2017  17:27:26.661926	1.202962E+0	2.082484E-2	1.900811E-2	-1.014905E+1	2.222863E-2	2.709402E-2	7.205661E-2	2.147136E-2
10/19/2017  17:27:26.662926	3.463085E-1	1.828100E-2	2.155331E-2	-1.013378E+1	1.202884E-2	2.709402E-2	7.968532E-2	3.164702E-2
10/19/2017  17:27:26.663926	-3.400309E-1	1.573716E-2	2.664372E-2	-1.013887E+1	1.712873E-2	1.183011E-2	7.714242E-2	4.691052E-2
								
10/19/2017  17:27:26.664926	-7.848805E-1	5.561801E-3	1.391770E-2	-1.012105E+1	3.242842E-2	1.691808E-2	7.968532E-2	4.182269E-2
10/19/2017  17:27:26.665926	5.013703E-1	1.828100E-2	1.137250E-2	-1.014142E+1	2.987847E-2	1.946206E-2	6.697081E-2	3.164702E-2
10/19/2017  17:27:26.666926	1.083488E+0	1.573716E-2	2.155331E-2	-1.013123E+1	3.242842E-2	2.455003E-2	7.714242E-2	3.673486E-2
10/19/2017  17:27:26.667926	2.471706E-1	2.082484E-2	2.155331E-2	-1.013378E+1	2.222863E-2	3.218199E-2	7.459952E-2	3.419094E-2
10/19/2017  17:27:26.668926	-2.536030E-1	1.319332E-2	2.155331E-2	-1.013887E+1	9.478889E-3	1.946206E-2	7.968532E-2	2.147136E-2
10/19/2017  17:27:26.669926	-3.273209E-1	1.064948E-2	2.664372E-2	-1.013378E+1	1.457878E-2	1.183011E-2	7.968532E-2	3.673486E-2
10/19/2017  17:27:26.670926	-4.772988E-1	1.064948E-2	1.646291E-2	-1.013378E+1	2.477858E-2	1.691808E-2	7.205661E-2	3.927877E-2
10/19/2017  17:27:26.671926	3.818964E-1	1.573716E-2	1.391770E-2	-1.012105E+1	2.987847E-2	2.709402E-2	6.951371E-2	3.164702E-2
10/19/2017  17:27:26.672926	3.463085E-1	1.573716E-2	1.646291E-2	-1.013632E+1	1.967868E-2	1.946206E-2	7.714242E-2	1.129569E-2
10/19/2017  17:27:26.673926	-1.442971E-1	2.591253E-2	1.900811E-2	-1.012614E+1	2.222863E-2	2.963800E-2	7.205661E-2	3.164702E-2
10/19/2017  17:27:26.674926	1.022767E-1	2.082484E-2	2.155331E-2	-1.013887E+1	1.712873E-2	1.691808E-2	8.222822E-2	3.164702E-2
10/19/2017  17:27:26.675926	5.397873E-2	1.064948E-2	2.664372E-2	-1.014396E+1	1.457878E-2	1.183011E-2	7.714242E-2	3.673486E-2
10/19/2017  17:27:26.676926	-4.261718E-2	-2.069720E-3	2.155331E-2	-1.013378E+1	1.967868E-2	1.691808E-2	7.459952E-2	3.419094E-2
10/19/2017  17:27:26.677926	-8.074715E-2	1.828100E-2	1.391770E-2	-1.013632E+1	2.987847E-2	2.200605E-2	8.477112E-2	3.164702E-2
10/19/2017  17:27:26.678926	5.906273E-2	2.082484E-2	3.173413E-2	-1.014651E+1	3.242842E-2	2.200605E-2	6.951371E-2	2.147136E-2
10/19/2017  17:27:26.679926	2.268346E-1	1.573716E-2	2.409852E-2	-1.014142E+1	1.712873E-2	2.963800E-2	7.714242E-2	2.401527E-2
10/19/2017  17:27:26.680926	3.742704E-1	1.064948E-2	2.409852E-2	-1.013632E+1	1.457878E-2	1.946206E-2	8.477112E-2	2.910311E-2
10/19/2017  17:27:26.681926	5.928822E-1	1.573716E-2	1.900811E-2	-1.012614E+1	2.222863E-2	1.437409E-2	7.459952E-2	3.673486E-2
10/19/2017  17:27:26.682926	4.505304E-1	1.573716E-2	1.900811E-2	-1.013887E+1	2.987847E-2	9.286120E-3	7.459952E-2	2.655919E-2
10/19/2017  17:27:26.683926	-2.078470E-1	1.828100E-2	1.137250E-2	-1.013378E+1	2.987847E-2	1.946206E-2	6.697081E-2	3.419094E-2
10/19/2017  17:27:26.684926	-1.900530E-1	1.064948E-2	1.646291E-2	-1.013123E+1	2.222863E-2	3.726996E-2	7.205661E-2	3.164702E-2
10/19/2017  17:27:26.685926	1.474955E+0	3.017961E-3	1.900811E-2	-1.012869E+1	2.222863E-2	2.455003E-2	7.205661E-2	2.910311E-2
10/19/2017  17:27:26.686926	5.967806E-4	1.319332E-2	2.664372E-2	-1.014142E+1	1.457878E-2	4.198150E-3	8.222822E-2	2.147136E-2
10/19/2017  17:27:26.687926	-7.569185E-1	1.319332E-2	2.409852E-2	-1.013632E+1	2.732853E-2	9.286120E-3	7.714242E-2	4.182269E-2
10/19/2017  17:27:26.688926	-2.103890E-1	1.064948E-2	1.646291E-2	-1.013123E+1	2.477858E-2	1.946206E-2	6.697081E-2	3.673486E-2
10/19/2017  17:27:26.689926	5.397873E-2	8.105642E-3	1.137250E-2	-1.015415E+1	3.242842E-2	2.709402E-2	6.951371E-2	2.147136E-2
10/19/2017  17:27:26.690926	1.734526E-1	1.828100E-2	2.409852E-2	-1.014651E+1	2.222863E-2	2.709402E-2	7.968532E-2	2.147136E-2
10/19/2017  17:27:26.691926	8.292880E-1	1.064948E-2	2.409852E-2	-1.013378E+1	2.732853E-2	1.946206E-2	8.731403E-2	3.164702E-2
10/19/2017  17:27:26.692926	4.378204E-1	8.105642E-3	1.900811E-2	-1.013632E+1	2.222863E-2	1.183011E-2	7.205661E-2	3.419094E-2
10/19/2017  17:27:26.693926	-2.942750E-1	1.319332E-2	1.900811E-2	-1.013123E+1	4.378993E-3	1.946206E-2	7.205661E-2	3.164702E-2
10/19/2017  17:27:26.694926	-7.213306E-1	2.082484E-2	8.827299E-3	-1.013632E+1	2.732853E-2	2.963800E-2	7.205661E-2	2.401527E-2
10/19/2017  17:27:26.695926	1.866423E+0	2.591253E-2	2.155331E-2	-1.014905E+1	2.477858E-2	2.709402E-2	7.968532E-2	2.147136E-2
10/19/2017  17:27:26.696926	1.228382E+0	1.064948E-2	1.900811E-2	-1.013887E+1	1.712873E-2	1.691808E-2	7.714242E-2	3.164702E-2
								
10/19/2017  17:27:26.697926	-1.473762E+0	1.064948E-2	1.900811E-2	-1.013123E+1	2.222863E-2	1.691808E-2	7.714242E-2	2.910311E-2
10/19/2017  17:27:26.698926	-1.148386E+0	1.064948E-2	1.646291E-2	-1.013632E+1	2.732853E-2	1.946206E-2	7.205661E-2	2.910311E-2
10/19/2017  17:27:26.699926	-5.332227E-1	1.828100E-2	8.827299E-3	-1.013632E+1	2.732853E-2	2.709402E-2	6.697081E-2	2.147136E-2
10/19/2017  17:27:26.700926	-1.417551E-1	2.082484E-2	1.900811E-2	-1.015415E+1	1.712873E-2	2.455003E-2	7.459952E-2	2.655919E-2
10/19/2017  17:27:26.701926	-5.052608E-1	1.573716E-2	3.173413E-2	-1.013887E+1	1.712873E-2	2.200605E-2	8.222822E-2	2.910311E-2
10/19/2017  17:27:26.702926	-4.442528E-1	8.105642E-3	1.900811E-2	-1.012614E+1	1.967868E-2	2.200605E-2	7.205661E-2	3.419094E-2
10/19/2017  17:27:26.703926	7.301501E-1	1.064948E-2	1.137250E-2	-1.012614E+1	2.222863E-2	9.286120E-3	7.205661E-2	3.164702E-2
10/19/2017  17:27:26.704926	5.293323E-1	2.591253E-2	1.646291E-2	-1.014142E+1	2.987847E-2	2.709402E-2	6.442791E-2	2.655919E-2
10/19/2017  17:27:26.705926	-2.230990E-1	2.591253E-2	3.427933E-2	-1.014142E+1	2.987847E-2	3.472597E-2	7.459952E-2	2.910311E-2
10/19/2017  17:27:26.706926	3.158045E-1	1.319332E-2	2.664372E-2	-1.013887E+1	1.457878E-2	1.946206E-2	7.968532E-2	2.910311E-2
10/19/2017  17:27:26.707926	4.378204E-1	8.105642E-3	1.646291E-2	-1.013123E+1	9.478889E-3	1.946206E-2	8.222822E-2	3.673486E-2
10/19/2017  17:27:26.708926	3.869804E-1	1.064948E-2	1.137250E-2	-1.012614E+1	2.477858E-2	1.691808E-2	6.951371E-2	2.655919E-2
10/19/2017  17:27:26.709926	2.827585E-1	1.319332E-2	1.391770E-2	-1.014142E+1	2.987847E-2	2.200605E-2	6.951371E-2	2.147136E-2
10/19/2017  17:27:26.710926	-7.187886E-1	1.319332E-2	2.155331E-2	-1.014651E+1	2.222863E-2	2.709402E-2	7.205661E-2	2.401527E-2
10/19/2017  17:27:26.711926	-9.272324E-1	1.064948E-2	2.409852E-2	-1.013632E+1	1.457878E-2	3.726996E-2	8.222822E-2	3.673486E-2
10/19/2017  17:27:26.712926	-2.053050E-1	3.100021E-2	1.900811E-2	-1.013123E+1	2.222863E-2	2.200605E-2	7.459952E-2	3.419094E-2
10/19/2017  17:27:26.713926	1.582006E-1	1.064948E-2	1.646291E-2	-1.014142E+1	2.477858E-2	9.286120E-3	7.459952E-2	2.401527E-2
10/19/2017  17:27:26.714926	3.768124E-1	4.741205E-4	8.827299E-3	-1.014651E+1	2.477858E-2	2.455003E-2	6.951371E-2	3.164702E-2
10/19/2017  17:27:26.715926	5.369583E-1	2.082484E-2	1.137250E-2	-1.013632E+1	2.987847E-2	2.963800E-2	7.205661E-2	2.401527E-2
10/19/2017  17:27:26.716926	6.310122E-1	1.828100E-2	2.409852E-2	-1.013887E+1	1.202884E-2	2.963800E-2	7.714242E-2	1.892744E-2
10/19/2017  17:27:26.717926	3.666444E-1	8.105642E-3	1.900811E-2	-1.012869E+1	1.457878E-2	1.946206E-2	8.222822E-2	3.673486E-2
10/19/2017  17:27:26.718926	-9.599913E-2	1.064948E-2	1.900811E-2	-1.013123E+1	4.007827E-2	1.437409E-2	7.714242E-2	4.182269E-2
10/19/2017  17:27:26.719926	-9.780723E-1	8.105642E-3	1.137250E-2	-1.012359E+1	2.732853E-2	1.946206E-2	6.697081E-2	2.910311E-2
10/19/2017  17:27:26.720926	-1.880482E+0	1.064948E-2	1.137250E-2	-1.013632E+1	2.732853E-2	2.963800E-2	7.205661E-2	2.401527E-2
10/19/2017  17:27:26.721926	-3.425729E-1	2.082484E-2	1.391770E-2	-1.014142E+1	2.222863E-2	2.709402E-2	7.459952E-2	2.655919E-2
