Parameters: 	Upper Cutoff:  500	Lower Cutoff: 20	Sample Rate (Hz): 1000	Frames Per Second30	Display Window Size (S)400	MVC Window Size (s): 400	Seconds To Acquire MVC: 3	Display Channel: 0
waveform	[0]	[1]	[2]	[3]	[4]	[5]	[6]	[7]
t0	10/19/2017  17:34:44.622996	10/19/2017  17:34:44.622996	10/19/2017  17:34:44.622996	10/19/2017  17:34:44.622996	10/19/2017  17:34:44.622996	10/19/2017  17:34:44.622996	10/19/2017  17:34:44.622996	10/19/2017  17:34:44.622996
delta t	0.001000	0.001000	0.001000	0.001000	0.001000	0.001000	0.001000	0.001000

time	Y[0]	Y[1]	Y[2]	Y[3]	Y[4]	Y[5]	Y[6]	Y[7]
10/19/2017  17:34:44.603609	-1.072126E+0	2.082484E-2	2.664372E-2	-1.014142E+1	1.967868E-2	2.963800E-2	7.459952E-2	2.910311E-2
10/19/2017  17:34:44.604609	-2.561450E-1	1.319332E-2	1.391770E-2	-1.014142E+1	1.967868E-2	1.183011E-2	8.222822E-2	3.673486E-2
10/19/2017  17:34:44.605609	-1.465521E-2	8.105642E-3	2.155331E-2	-1.013632E+1	2.222863E-2	1.437409E-2	7.205661E-2	4.182269E-2
10/19/2017  17:34:44.606609	-1.443258E+0	1.319332E-2	1.391770E-2	-1.013887E+1	2.987847E-2	3.981394E-2	6.697081E-2	3.419094E-2
10/19/2017  17:34:44.607609	1.551215E+0	3.100021E-2	1.391770E-2	-1.013632E+1	1.967868E-2	2.455003E-2	7.205661E-2	2.147136E-2
10/19/2017  17:34:44.608609	2.631564E+0	2.082484E-2	2.155331E-2	-1.014142E+1	1.457878E-2	2.709402E-2	8.222822E-2	3.164702E-2
10/19/2017  17:34:44.609609	-3.044429E-1	5.561801E-3	2.409852E-2	-1.014396E+1	4.378993E-3	2.200605E-2	7.968532E-2	3.673486E-2
10/19/2017  17:34:44.610609	-1.448342E+0	8.105642E-3	1.900811E-2	-1.013378E+1	1.967868E-2	1.946206E-2	7.205661E-2	3.927877E-2
10/19/2017  17:34:44.611609	-1.893192E+0	1.319332E-2	1.137250E-2	-1.013887E+1	2.477858E-2	1.946206E-2	7.205661E-2	2.655919E-2
10/19/2017  17:34:44.612609	-8.001325E-1	2.082484E-2	1.137250E-2	-1.014905E+1	2.732853E-2	2.709402E-2	6.951371E-2	2.655919E-2
10/19/2017  17:34:44.613609	1.612223E+0	1.828100E-2	2.155331E-2	-1.014142E+1	3.242842E-2	2.963800E-2	8.222822E-2	3.927877E-2
10/19/2017  17:34:44.614609	2.573385E-1	3.017961E-3	1.646291E-2	-1.011850E+1	1.712873E-2	1.691808E-2	8.477112E-2	3.927877E-2
10/19/2017  17:34:44.615609	2.471706E-1	5.561801E-3	1.900811E-2	-1.012359E+1	2.477858E-2	2.455003E-2	7.968532E-2	2.147136E-2
10/19/2017  17:34:44.616609	4.988283E-1	1.319332E-2	1.137250E-2	-1.013887E+1	2.732853E-2	1.946206E-2	6.442791E-2	3.419094E-2
10/19/2017  17:34:44.617609	1.998607E+0	1.573716E-2	1.646291E-2	-1.013123E+1	2.477858E-2	2.963800E-2	7.459952E-2	1.383961E-2
10/19/2017  17:34:44.618609	-3.120689E-1	1.828100E-2	2.409852E-2	-1.014142E+1	1.457878E-2	2.709402E-2	8.477112E-2	2.910311E-2
10/19/2017  17:34:44.619609	-1.143302E+0	8.105642E-3	1.391770E-2	-1.013378E+1	2.222863E-2	1.183011E-2	7.459952E-2	3.927877E-2
10/19/2017  17:34:44.620609	-2.129310E-1	1.573716E-2	1.137250E-2	-1.014905E+1	2.732853E-2	1.691808E-2	7.205661E-2	3.164702E-2
10/19/2017  17:34:44.621609	-1.084836E+0	1.828100E-2	1.137250E-2	-1.013887E+1	2.477858E-2	2.963800E-2	6.697081E-2	2.401527E-2
10/19/2017  17:34:44.622609	-3.069849E-1	2.591253E-2	2.409852E-2	-1.014142E+1	2.222863E-2	2.963800E-2	7.459952E-2	2.655919E-2
10/19/2017  17:34:44.623609	9.513039E-1	1.828100E-2	2.918892E-2	-1.013123E+1	1.712873E-2	9.286120E-3	8.222822E-2	3.164702E-2
10/19/2017  17:34:44.624609	2.204509E+0	3.017961E-3	8.827299E-3	-1.013378E+1	2.987847E-2	1.183011E-2	6.697081E-2	3.673486E-2
10/19/2017  17:34:44.625609	8.623340E-1	1.828100E-2	1.137250E-2	-1.014651E+1	2.477858E-2	3.726996E-2	6.951371E-2	3.164702E-2
10/19/2017  17:34:44.626609	-8.560564E-1	2.845637E-2	1.646291E-2	-1.014142E+1	2.477858E-2	2.709402E-2	7.714242E-2	2.401527E-2
10/19/2017  17:34:44.627609	-9.602784E-1	1.319332E-2	2.664372E-2	-1.014396E+1	1.457878E-2	1.437409E-2	7.714242E-2	2.910311E-2
10/19/2017  17:34:44.628609	1.243634E+0	1.064948E-2	2.155331E-2	-1.013632E+1	2.477858E-2	1.437409E-2	6.951371E-2	3.673486E-2
10/19/2017  17:34:44.629609	-8.328914E-2	1.064948E-2	1.137250E-2	-1.014142E+1	2.732853E-2	3.981394E-2	6.697081E-2	3.673486E-2
10/19/2017  17:34:44.630609	-1.722591E-1	1.319332E-2	1.646291E-2	-1.013632E+1	1.712873E-2	2.709402E-2	7.714242E-2	2.147136E-2
10/19/2017  17:34:44.631609	-1.585610E+0	1.319332E-2	1.900811E-2	-1.014396E+1	1.967868E-2	9.286120E-3	7.459952E-2	2.401527E-2
10/19/2017  17:34:44.632609	-9.043544E-1	-4.613560E-3	1.900811E-2	-1.014396E+1	2.477858E-2	2.200605E-2	7.459952E-2	3.927877E-2
10/19/2017  17:34:44.633609	-4.976348E-1	1.319332E-2	1.391770E-2	-1.012869E+1	2.987847E-2	2.455003E-2	6.951371E-2	2.910311E-2
10/19/2017  17:34:44.634609	-1.298364E+0	1.828100E-2	1.900811E-2	-1.013123E+1	2.732853E-2	2.709402E-2	7.459952E-2	2.401527E-2
10/19/2017  17:34:44.635609	-8.560564E-1	1.064948E-2	2.155331E-2	-1.014651E+1	1.457878E-2	1.946206E-2	7.968532E-2	2.910311E-2
								
10/19/2017  17:34:44.636609	-1.069584E+0	8.105642E-3	2.155331E-2	-1.013632E+1	3.242842E-2	1.437409E-2	7.205661E-2	4.436661E-2
10/19/2017  17:34:44.637609	2.207051E+0	1.319332E-2	1.391770E-2	-1.013123E+1	2.732853E-2	2.963800E-2	6.951371E-2	3.164702E-2
10/19/2017  17:34:44.638609	2.779000E+0	2.082484E-2	1.646291E-2	-1.014396E+1	2.477858E-2	2.709402E-2	7.714242E-2	1.638352E-2
10/19/2017  17:34:44.639609	-5.332227E-1	1.319332E-2	1.900811E-2	-1.014905E+1	1.457878E-2	1.183011E-2	7.968532E-2	3.673486E-2
10/19/2017  17:34:44.640609	-2.241445E+0	3.017961E-3	1.391770E-2	-1.013378E+1	2.477858E-2	1.691808E-2	7.459952E-2	3.164702E-2
10/19/2017  17:34:44.641609	-1.036538E+0	1.319332E-2	2.409852E-2	-1.013123E+1	2.732853E-2	2.455003E-2	7.205661E-2	3.673486E-2
10/19/2017  17:34:44.642609	1.429487E-1	2.591253E-2	2.155331E-2	-1.013887E+1	2.222863E-2	2.200605E-2	7.459952E-2	2.401527E-2
10/19/2017  17:34:44.643609	1.856255E+0	1.064948E-2	2.155331E-2	-1.013378E+1	1.712873E-2	1.437409E-2	6.951371E-2	3.164702E-2
10/19/2017  17:34:44.644609	2.013859E+0	5.561801E-3	2.409852E-2	-1.013378E+1	2.222863E-2	2.200605E-2	7.459952E-2	3.164702E-2
10/19/2017  17:34:44.645609	5.318743E-1	1.064948E-2	8.827299E-3	-1.013123E+1	2.987847E-2	1.946206E-2	6.442791E-2	3.164702E-2
10/19/2017  17:34:44.646609	1.162290E+0	4.741205E-4	6.282096E-3	-1.014396E+1	2.477858E-2	2.455003E-2	7.205661E-2	2.910311E-2
10/19/2017  17:34:44.647609	3.356034E+0	1.319332E-2	2.664372E-2	-1.013887E+1	1.967868E-2	1.946206E-2	7.205661E-2	3.164702E-2
10/19/2017  17:34:44.648609	4.024579E+0	1.319332E-2	2.409852E-2	-1.012614E+1	1.712873E-2	2.455003E-2	7.459952E-2	3.419094E-2
10/19/2017  17:34:44.649609	-8.179265E-1	2.336868E-2	1.137250E-2	-1.012869E+1	1.712873E-2	2.455003E-2	7.205661E-2	2.910311E-2
10/19/2017  17:34:44.650609	-2.597325E+0	2.082484E-2	1.900811E-2	-1.014651E+1	3.242842E-2	9.286120E-3	7.459952E-2	2.910311E-2
10/19/2017  17:34:44.651609	-8.026745E-1	5.561801E-3	2.664372E-2	-1.014905E+1	1.202884E-2	2.200605E-2	7.968532E-2	3.164702E-2
10/19/2017  17:34:44.652609	-1.283112E+0	5.561801E-3	2.155331E-2	-1.013632E+1	2.477858E-2	2.200605E-2	7.714242E-2	3.673486E-2
10/19/2017  17:34:44.653609	-1.519518E+0	1.828100E-2	1.137250E-2	-1.013123E+1	2.732853E-2	1.946206E-2	6.951371E-2	3.419094E-2
10/19/2017  17:34:44.654609	-1.283112E+0	2.082484E-2	1.900811E-2	-1.014651E+1	2.477858E-2	9.286120E-3	7.714242E-2	2.401527E-2
10/19/2017  17:34:44.655609	-2.688550E-1	5.561801E-3	2.664372E-2	-1.015669E+1	1.457878E-2	2.200605E-2	7.714242E-2	3.419094E-2
10/19/2017  17:34:44.656609	-1.133134E+0	8.105642E-3	2.155331E-2	-1.012614E+1	2.222863E-2	1.946206E-2	7.968532E-2	3.927877E-2
10/19/2017  17:34:44.657609	-2.676127E+0	1.319332E-2	1.137250E-2	-1.012869E+1	3.497837E-2	2.200605E-2	7.205661E-2	3.164702E-2
10/19/2017  17:34:44.658609	-2.274491E+0	2.082484E-2	1.391770E-2	-1.015669E+1	2.222863E-2	2.709402E-2	7.459952E-2	2.401527E-2
10/19/2017  17:34:44.659609	2.257891E+0	1.828100E-2	2.155331E-2	-1.014396E+1	1.829045E-3	2.963800E-2	7.459952E-2	2.910311E-2
10/19/2017  17:34:44.660609	1.075862E+0	8.105642E-3	2.155331E-2	-1.012105E+1	1.712873E-2	1.946206E-2	7.968532E-2	3.673486E-2
10/19/2017  17:34:44.661609	1.963306E-1	1.319332E-2	1.646291E-2	-1.013632E+1	2.477858E-2	1.946206E-2	7.205661E-2	2.147136E-2
10/19/2017  17:34:44.662609	4.421131E+0	1.064948E-2	1.137250E-2	-1.014142E+1	1.967868E-2	2.200605E-2	7.459952E-2	2.147136E-2
10/19/2017  17:34:44.663609	4.987996E+0	1.573716E-2	1.900811E-2	-1.013887E+1	1.712873E-2	2.963800E-2	8.222822E-2	4.182269E-2
10/19/2017  17:34:44.664609	1.584877E-2	5.561801E-3	2.155331E-2	-1.011086E+1	1.712873E-2	2.200605E-2	8.731403E-2	3.673486E-2
10/19/2017  17:34:44.665609	-2.948121E+0	1.319332E-2	8.827299E-3	-1.013632E+1	2.732853E-2	1.691808E-2	6.951371E-2	3.419094E-2
10/19/2017  17:34:44.666609	-2.515981E+0	8.105642E-3	1.391770E-2	-1.016942E+1	2.732853E-2	1.946206E-2	6.188501E-2	2.655919E-2
10/19/2017  17:34:44.667609	-1.672038E+0	8.105642E-3	3.682453E-2	-1.015160E+1	1.712873E-2	2.709402E-2	8.222822E-2	2.147136E-2
10/19/2017  17:34:44.668609	-6.196507E-1	8.105642E-3	2.918892E-2	-1.013123E+1	1.967868E-2	1.946206E-2	8.477112E-2	3.673486E-2
								
10/19/2017  17:34:44.669609	1.347856E+0	1.064948E-2	6.282096E-3	-1.012105E+1	2.732853E-2	1.183011E-2	6.951371E-2	3.673486E-2
10/19/2017  17:34:44.670609	6.160473E-2	1.319332E-2	1.137250E-2	-1.014142E+1	2.987847E-2	1.946206E-2	6.951371E-2	2.147136E-2
10/19/2017  17:34:44.671609	-1.168722E+0	1.828100E-2	3.427933E-2	-1.014905E+1	2.222863E-2	4.235793E-2	7.459952E-2	2.910311E-2
10/19/2017  17:34:44.672609	-2.739390E-1	1.064948E-2	2.664372E-2	-1.013632E+1	1.202884E-2	2.200605E-2	7.968532E-2	3.164702E-2
10/19/2017  17:34:44.673609	2.014146E-1	1.064948E-2	8.827299E-3	-1.013632E+1	1.967868E-2	4.198150E-3	7.459952E-2	3.419094E-2
10/19/2017  17:34:44.674609	1.856255E+0	1.573716E-2	1.900811E-2	-1.013887E+1	1.457878E-2	2.200605E-2	6.951371E-2	3.164702E-2
10/19/2017  17:34:44.675609	3.259725E-1	1.828100E-2	1.391770E-2	-1.013632E+1	2.987847E-2	1.946206E-2	6.951371E-2	2.910311E-2
10/19/2017  17:34:44.676609	9.513039E-1	3.354405E-2	2.664372E-2	-1.013632E+1	2.732853E-2	2.709402E-2	7.714242E-2	2.655919E-2
10/19/2017  17:34:44.677609	5.680776E-3	1.319332E-2	2.409852E-2	-1.013378E+1	1.967868E-2	1.183011E-2	7.968532E-2	3.419094E-2
10/19/2017  17:34:44.678609	-1.638992E+0	3.017961E-3	2.409852E-2	-1.013378E+1	1.202884E-2	1.691808E-2	7.205661E-2	3.419094E-2
10/19/2017  17:34:44.679609	-2.020291E+0	5.561801E-3	1.391770E-2	-1.012869E+1	2.222863E-2	1.946206E-2	6.951371E-2	3.673486E-2
10/19/2017  17:34:44.680609	-1.349204E+0	3.017961E-3	8.827299E-3	-1.014651E+1	3.497837E-2	2.963800E-2	7.205661E-2	2.147136E-2
10/19/2017  17:34:44.681609	-2.154730E-1	2.082484E-2	2.155331E-2	-1.015669E+1	1.457878E-2	2.709402E-2	8.222822E-2	3.164702E-2
10/19/2017  17:34:44.682609	2.649645E-1	8.105642E-3	2.664372E-2	-1.012869E+1	6.928941E-3	1.437409E-2	7.205661E-2	4.182269E-2
10/19/2017  17:34:44.683609	1.487665E+0	1.064948E-2	1.900811E-2	-1.012869E+1	2.732853E-2	1.691808E-2	6.951371E-2	3.164702E-2
10/19/2017  17:34:44.684609	2.458709E+0	1.828100E-2	1.646291E-2	-1.013887E+1	2.222863E-2	2.963800E-2	7.714242E-2	2.655919E-2
10/19/2017  17:34:44.685609	1.957935E+0	1.573716E-2	1.137250E-2	-1.014651E+1	1.712873E-2	1.691808E-2	7.968532E-2	3.164702E-2
10/19/2017  17:34:44.686609	1.355482E+0	8.105642E-3	2.155331E-2	-1.012869E+1	2.222863E-2	1.691808E-2	7.714242E-2	2.655919E-2
10/19/2017  17:34:44.687609	4.098584E-1	1.319332E-2	1.900811E-2	-1.013887E+1	2.987847E-2	2.709402E-2	6.697081E-2	3.164702E-2
10/19/2017  17:34:44.688609	-1.133134E+0	1.828100E-2	8.827299E-3	-1.014651E+1	2.477858E-2	2.709402E-2	7.714242E-2	1.129569E-2
10/19/2017  17:34:44.689609	7.911581E-1	1.319332E-2	2.664372E-2	-1.015669E+1	1.967868E-2	1.437409E-2	7.968532E-2	2.910311E-2
10/19/2017  17:34:44.690609	8.038681E-1	1.064948E-2	2.664372E-2	-1.013123E+1	2.477858E-2	1.691808E-2	7.459952E-2	3.673486E-2
10/19/2017  17:34:44.691609	1.531166E-1	1.064948E-2	1.646291E-2	-1.012614E+1	2.987847E-2	1.691808E-2	6.951371E-2	3.164702E-2
10/19/2017  17:34:44.692609	1.839076E-2	8.105642E-3	1.391770E-2	-1.014651E+1	2.987847E-2	2.455003E-2	6.951371E-2	2.401527E-2
10/19/2017  17:34:44.693609	6.869362E-1	1.828100E-2	2.664372E-2	-1.014651E+1	1.712873E-2	2.963800E-2	7.968532E-2	3.164702E-2
10/19/2017  17:34:44.694609	-6.145667E-1	1.573716E-2	3.173413E-2	-1.013378E+1	1.712873E-2	1.691808E-2	8.222822E-2	4.182269E-2
10/19/2017  17:34:44.695609	-8.103005E-1	8.105642E-3	1.900811E-2	-1.013632E+1	2.732853E-2	1.691808E-2	5.934210E-2	3.673486E-2
10/19/2017  17:34:44.696609	1.543589E+0	1.319332E-2	1.191689E-3	-1.013887E+1	2.477858E-2	3.726996E-2	6.697081E-2	2.401527E-2
10/19/2017  17:34:44.697609	-7.340406E-1	2.336868E-2	1.646291E-2	-1.014905E+1	2.477858E-2	2.963800E-2	7.714242E-2	2.147136E-2
10/19/2017  17:34:44.698609	-1.257692E+0	8.105642E-3	2.664372E-2	-1.013632E+1	1.712873E-2	3.981394E-2	8.222822E-2	3.673486E-2
10/19/2017  17:34:44.699609	-6.295316E-2	3.017961E-3	1.646291E-2	-1.013378E+1	1.967868E-2	1.183011E-2	7.205661E-2	3.419094E-2
10/19/2017  17:34:44.700609	-1.664412E+0	1.319332E-2	1.646291E-2	-1.014396E+1	2.477858E-2	9.286120E-3	7.205661E-2	2.147136E-2
10/19/2017  17:34:44.701609	-1.097546E+0	5.561801E-3	2.155331E-2	-1.015160E+1	2.222863E-2	2.455003E-2	7.968532E-2	2.655919E-2
								
10/19/2017  17:34:44.702609	-6.298186E-1	1.319332E-2	2.155331E-2	-1.013887E+1	2.477858E-2	2.963800E-2	7.714242E-2	3.673486E-2
10/19/2017  17:34:44.703609	-1.532228E+0	1.319332E-2	2.409852E-2	-1.013123E+1	1.967868E-2	1.946206E-2	8.477112E-2	2.655919E-2
10/19/2017  17:34:44.704609	-1.331410E+0	5.561801E-3	1.391770E-2	-1.012869E+1	1.967868E-2	1.437409E-2	7.968532E-2	4.182269E-2
10/19/2017  17:34:44.705609	-2.561450E-1	1.319332E-2	1.646291E-2	-1.013632E+1	4.007827E-2	2.200605E-2	7.968532E-2	4.182269E-2
10/19/2017  17:34:44.706609	2.659526E+0	1.828100E-2	2.664372E-2	-1.013887E+1	2.477858E-2	2.963800E-2	7.714242E-2	2.910311E-2
10/19/2017  17:34:44.707609	2.418037E+0	2.082484E-2	2.155331E-2	-1.014396E+1	1.457878E-2	2.455003E-2	7.714242E-2	2.147136E-2
10/19/2017  17:34:44.708609	2.641732E+0	8.105642E-3	1.646291E-2	-1.013378E+1	1.712873E-2	1.946206E-2	7.968532E-2	3.419094E-2
10/19/2017  17:34:44.709609	1.065694E+0	1.064948E-2	2.155331E-2	-1.013632E+1	2.477858E-2	1.691808E-2	7.714242E-2	4.182269E-2
10/19/2017  17:34:44.710609	-1.183974E+0	1.064948E-2	1.646291E-2	-1.012869E+1	2.732853E-2	2.455003E-2	6.697081E-2	2.655919E-2
10/19/2017  17:34:44.711609	-1.791512E+0	1.573716E-2	8.827299E-3	-1.015160E+1	2.477858E-2	2.709402E-2	6.951371E-2	2.147136E-2
10/19/2017  17:34:44.712609	-1.295822E+0	1.573716E-2	1.900811E-2	-1.012614E+1	2.222863E-2	2.455003E-2	7.714242E-2	3.164702E-2
10/19/2017  17:34:44.713609	-7.543765E-1	1.573716E-2	3.173413E-2	-1.014142E+1	1.712873E-2	2.455003E-2	7.968532E-2	3.164702E-2
10/19/2017  17:34:44.714609	-3.603669E-1	5.561801E-3	1.646291E-2	-1.013123E+1	1.967868E-2	1.691808E-2	6.951371E-2	3.673486E-2
10/19/2017  17:34:44.715609	3.274690E+0	1.573716E-2	3.736893E-3	-1.012869E+1	2.477858E-2	1.691808E-2	6.951371E-2	2.910311E-2
10/19/2017  17:34:44.716609	1.678315E+0	2.336868E-2	1.137250E-2	-1.014651E+1	2.732853E-2	1.946206E-2	6.442791E-2	2.910311E-2
10/19/2017  17:34:44.717609	-1.199226E+0	2.082484E-2	2.918892E-2	-1.014651E+1	2.477858E-2	3.472597E-2	7.459952E-2	2.910311E-2
10/19/2017  17:34:44.718609	-1.720336E+0	1.573716E-2	2.664372E-2	-1.014142E+1	1.202884E-2	2.455003E-2	7.968532E-2	2.910311E-2
10/19/2017  17:34:44.719609	2.494297E+0	1.319332E-2	1.391770E-2	-1.013887E+1	1.202884E-2	1.183011E-2	7.459952E-2	3.673486E-2
10/19/2017  17:34:44.720609	3.691577E+0	1.828100E-2	1.900811E-2	-1.012869E+1	2.477858E-2	1.437409E-2	7.205661E-2	2.910311E-2
10/19/2017  17:34:44.721609	-2.002497E+0	1.319332E-2	1.391770E-2	-1.013632E+1	2.987847E-2	2.963800E-2	6.951371E-2	3.927877E-2
10/19/2017  17:34:44.722609	-2.315163E+0	1.064948E-2	1.646291E-2	-1.014651E+1	1.457878E-2	2.963800E-2	7.205661E-2	2.401527E-2
10/19/2017  17:34:44.723609	3.005525E-1	1.828100E-2	2.155331E-2	-1.014905E+1	1.967868E-2	2.709402E-2	8.222822E-2	2.401527E-2
10/19/2017  17:34:44.724609	-7.848805E-1	2.591253E-2	2.664372E-2	-1.013123E+1	1.457878E-2	1.691808E-2	7.968532E-2	3.927877E-2
10/19/2017  17:34:44.725609	1.810786E-1	1.064948E-2	2.155331E-2	-1.012614E+1	2.222863E-2	1.946206E-2	7.714242E-2	3.164702E-2
10/19/2017  17:34:44.726609	9.309679E-1	1.064948E-2	1.900811E-2	-1.013378E+1	3.242842E-2	1.946206E-2	6.951371E-2	3.164702E-2
10/19/2017  17:34:44.727609	8.448270E-2	1.319332E-2	1.646291E-2	-1.015160E+1	2.222863E-2	2.709402E-2	7.459952E-2	2.910311E-2
10/19/2017  17:34:44.728609	-1.087378E+0	1.573716E-2	2.409852E-2	-1.013632E+1	3.242842E-2	2.455003E-2	8.477112E-2	3.419094E-2
10/19/2017  17:34:44.729609	-7.594605E-1	5.561801E-3	2.155331E-2	-1.014142E+1	1.967868E-2	1.437409E-2	7.205661E-2	3.673486E-2
10/19/2017  17:34:44.730609	-5.278517E-2	1.064948E-2	1.391770E-2	-1.013378E+1	1.202884E-2	1.691808E-2	6.188501E-2	2.910311E-2
10/19/2017  17:34:44.731609	1.431741E+0	1.573716E-2	6.282096E-3	-1.013632E+1	3.242842E-2	2.709402E-2	6.697081E-2	2.401527E-2
10/19/2017  17:34:44.732609	1.332604E+0	2.336868E-2	2.155331E-2	-1.013632E+1	2.477858E-2	2.963800E-2	8.222822E-2	3.673486E-2
10/19/2017  17:34:44.733609	1.497833E+0	1.573716E-2	2.409852E-2	-1.011596E+1	1.457878E-2	2.455003E-2	8.222822E-2	3.673486E-2
10/19/2017  17:34:44.734609	-3.426016E+0	5.561801E-3	1.391770E-2	-1.013632E+1	1.967868E-2	1.183011E-2	7.714242E-2	3.927877E-2
								
10/19/2017  17:34:44.735609	3.234305E-1	1.319332E-2	1.391770E-2	-1.014905E+1	2.732853E-2	2.455003E-2	7.205661E-2	3.164702E-2
10/19/2017  17:34:44.736609	3.124712E+0	2.845637E-2	1.900811E-2	-1.014651E+1	2.477858E-2	2.455003E-2	7.459952E-2	2.401527E-2
10/19/2017  17:34:44.737609	4.271153E+0	1.064948E-2	2.409852E-2	-1.014651E+1	1.457878E-2	2.200605E-2	7.205661E-2	3.164702E-2
10/19/2017  17:34:44.738609	1.210588E+0	-2.069720E-3	2.155331E-2	-1.012869E+1	1.967868E-2	1.691808E-2	7.714242E-2	3.164702E-2
10/19/2017  17:34:44.739609	-4.269959E+0	1.828100E-2	1.900811E-2	-1.014396E+1	2.222863E-2	2.200605E-2	6.951371E-2	3.164702E-2
10/19/2017  17:34:44.740609	-3.873408E+0	1.319332E-2	1.391770E-2	-1.014905E+1	2.477858E-2	3.218199E-2	7.459952E-2	2.147136E-2
10/19/2017  17:34:44.741609	-9.907823E-1	8.105642E-3	1.900811E-2	-1.014651E+1	1.967868E-2	1.946206E-2	7.459952E-2	2.910311E-2
10/19/2017  17:34:44.742609	-4.188328E-1	1.319332E-2	1.137250E-2	-1.012869E+1	1.457878E-2	1.691808E-2	7.205661E-2	3.927877E-2
10/19/2017  17:34:44.743609	-4.671308E-1	1.828100E-2	1.391770E-2	-1.013123E+1	3.242842E-2	1.946206E-2	6.697081E-2	3.164702E-2
10/19/2017  17:34:44.744609	3.895224E-1	1.828100E-2	1.391770E-2	-1.014396E+1	2.477858E-2	1.946206E-2	7.205661E-2	2.401527E-2
10/19/2017  17:34:44.745609	9.335099E-1	1.319332E-2	1.900811E-2	-1.014142E+1	1.457878E-2	1.946206E-2	7.205661E-2	3.419094E-2
10/19/2017  17:34:44.746609	1.022767E-1	1.064948E-2	2.409852E-2	-1.013632E+1	2.222863E-2	1.691808E-2	7.205661E-2	3.673486E-2
10/19/2017  17:34:44.747609	-1.442971E-1	1.828100E-2	1.900811E-2	-1.013123E+1	2.987847E-2	1.946206E-2	7.459952E-2	2.910311E-2
10/19/2017  17:34:44.748609	-9.602784E-1	1.319332E-2	1.646291E-2	-1.013887E+1	2.222863E-2	1.946206E-2	7.459952E-2	2.655919E-2
10/19/2017  17:34:44.749609	4.635274E-2	5.561801E-3	2.664372E-2	-1.014651E+1	4.378993E-3	2.455003E-2	7.968532E-2	2.910311E-2
10/19/2017  17:34:44.750609	1.584877E-2	8.105642E-3	2.155331E-2	-1.012869E+1	2.222863E-2	1.691808E-2	7.714242E-2	3.419094E-2
10/19/2017  17:34:44.751609	-4.874668E-1	1.573716E-2	1.391770E-2	-1.013123E+1	4.007827E-2	2.709402E-2	7.459952E-2	2.401527E-2
10/19/2017  17:34:44.752609	-5.255967E-1	2.082484E-2	1.391770E-2	-1.014905E+1	2.222863E-2	2.200605E-2	7.205661E-2	2.401527E-2
10/19/2017  17:34:44.753609	5.967806E-4	1.319332E-2	2.664372E-2	-1.013123E+1	1.967868E-2	1.946206E-2	7.459952E-2	3.927877E-2
10/19/2017  17:34:44.754609	4.352784E-1	1.064948E-2	2.155331E-2	-1.012614E+1	1.967868E-2	1.691808E-2	7.459952E-2	3.419094E-2
10/19/2017  17:34:44.755609	2.522546E-1	1.828100E-2	8.827299E-3	-1.013887E+1	2.477858E-2	1.946206E-2	7.205661E-2	3.164702E-2
10/19/2017  17:34:44.756609	-6.145667E-1	1.828100E-2	1.900811E-2	-1.015669E+1	2.222863E-2	2.455003E-2	7.205661E-2	2.401527E-2
10/19/2017  17:34:44.757609	-1.555106E+0	1.319332E-2	2.664372E-2	-1.013887E+1	1.457878E-2	2.455003E-2	7.968532E-2	5.199836E-2
10/19/2017  17:34:44.758609	-1.750840E+0	8.105642E-3	1.646291E-2	-1.011850E+1	2.222863E-2	1.946206E-2	7.968532E-2	3.419094E-2
10/19/2017  17:34:44.759609	3.175552E+0	1.319332E-2	2.409852E-2	-1.013887E+1	3.242842E-2	1.691808E-2	6.951371E-2	3.164702E-2
10/19/2017  17:34:44.760609	5.003248E+0	1.573716E-2	1.646291E-2	-1.013887E+1	1.967868E-2	2.455003E-2	6.697081E-2	2.401527E-2
10/19/2017  17:34:44.761609	2.855260E+0	1.319332E-2	3.173413E-2	-1.013123E+1	1.202884E-2	2.200605E-2	7.968532E-2	2.910311E-2
10/19/2017  17:34:44.762609	-3.431100E+0	5.561801E-3	1.900811E-2	-1.012614E+1	1.967868E-2	1.437409E-2	7.714242E-2	3.673486E-2
10/19/2017  17:34:44.763609	-2.978625E+0	2.082484E-2	3.736893E-3	-1.014142E+1	2.987847E-2	1.183011E-2	6.951371E-2	3.164702E-2
10/19/2017  17:34:44.764609	-2.434350E-1	1.828100E-2	1.900811E-2	-1.015415E+1	2.222863E-2	2.709402E-2	6.188501E-2	2.655919E-2
10/19/2017  17:34:44.765609	1.340230E+0	1.573716E-2	2.664372E-2	-1.013887E+1	1.202884E-2	2.709402E-2	8.222822E-2	3.164702E-2
10/19/2017  17:34:44.766609	-1.849691E-1	1.573716E-2	1.900811E-2	-1.012614E+1	1.967868E-2	1.437409E-2	7.205661E-2	3.927877E-2
10/19/2017  17:34:44.767609	-1.506808E+0	1.573716E-2	1.391770E-2	-1.013887E+1	4.007827E-2	1.183011E-2	6.697081E-2	3.419094E-2
								
10/19/2017  17:34:44.768609	1.101282E+0	1.064948E-2	2.155331E-2	-1.014142E+1	1.967868E-2	2.709402E-2	7.968532E-2	2.401527E-2
10/19/2017  17:34:44.769609	1.635101E+0	1.064948E-2	2.155331E-2	-1.013378E+1	1.457878E-2	1.691808E-2	7.968532E-2	2.655919E-2
10/19/2017  17:34:44.770609	8.725020E-1	2.082484E-2	1.900811E-2	-1.012359E+1	2.222863E-2	1.946206E-2	6.951371E-2	3.927877E-2
10/19/2017  17:34:44.771609	-1.465521E-2	2.591253E-2	1.137250E-2	-1.014142E+1	2.987847E-2	1.946206E-2	6.697081E-2	1.892744E-2
10/19/2017  17:34:44.772609	-4.417108E-1	8.105642E-3	1.900811E-2	-1.014651E+1	2.222863E-2	2.709402E-2	6.951371E-2	2.401527E-2
10/19/2017  17:34:44.773609	-2.302453E+0	1.064948E-2	2.155331E-2	-1.013632E+1	1.457878E-2	1.946206E-2	8.222822E-2	3.927877E-2
10/19/2017  17:34:44.774609	-2.157559E+0	1.064948E-2	2.155331E-2	-1.013123E+1	3.752832E-2	1.691808E-2	7.968532E-2	2.401527E-2
10/19/2017  17:34:44.775609	-3.959549E-1	1.064948E-2	1.391770E-2	-1.013632E+1	1.967868E-2	1.946206E-2	7.205661E-2	2.401527E-2
10/19/2017  17:34:44.776609	3.198430E+0	1.064948E-2	1.391770E-2	-1.013632E+1	4.378993E-3	2.455003E-2	7.714242E-2	2.655919E-2
10/19/2017  17:34:44.777609	3.770379E+0	8.105642E-3	2.409852E-2	-1.011850E+1	1.967868E-2	1.691808E-2	7.714242E-2	3.673486E-2
10/19/2017  17:34:44.778609	1.076477E-2	1.319332E-2	1.137250E-2	-1.013123E+1	2.987847E-2	1.946206E-2	7.205661E-2	2.401527E-2
10/19/2017  17:34:44.779609	-1.074668E+0	1.064948E-2	1.391770E-2	-1.013887E+1	2.222863E-2	2.200605E-2	7.459952E-2	2.401527E-2
10/19/2017  17:34:44.780609	1.406322E+0	1.319332E-2	2.918892E-2	-1.013632E+1	1.457878E-2	2.455003E-2	8.222822E-2	3.927877E-2
10/19/2017  17:34:44.781609	8.191200E-1	8.105642E-3	1.900811E-2	-1.011341E+1	2.222863E-2	2.200605E-2	8.222822E-2	3.164702E-2
10/19/2017  17:34:44.782609	1.096198E+0	1.573716E-2	1.137250E-2	-1.013632E+1	2.732853E-2	1.691808E-2	6.697081E-2	1.383961E-2
10/19/2017  17:34:44.783609	4.784923E-1	1.828100E-2	2.155331E-2	-1.014905E+1	2.222863E-2	2.200605E-2	6.697081E-2	2.147136E-2
10/19/2017  17:34:44.784609	-8.865604E-1	4.741205E-4	1.900811E-2	-1.013887E+1	1.457878E-2	1.946206E-2	8.222822E-2	3.164702E-2
10/19/2017  17:34:44.785609	1.749491E+0	1.319332E-2	1.900811E-2	-1.013123E+1	2.477858E-2	1.691808E-2	7.968532E-2	3.164702E-2
10/19/2017  17:34:44.786609	-4.925508E-1	1.573716E-2	8.827299E-3	-1.014142E+1	1.457878E-2	1.691808E-2	6.951371E-2	3.673486E-2
10/19/2017  17:34:44.787609	-4.770733E+0	1.319332E-2	1.900811E-2	-1.015160E+1	1.712873E-2	2.963800E-2	6.697081E-2	3.164702E-2
10/19/2017  17:34:44.788609	-3.578536E+0	1.319332E-2	3.427933E-2	-1.014396E+1	2.222863E-2	1.946206E-2	7.459952E-2	2.655919E-2
10/19/2017  17:34:44.789609	7.733641E-1	1.573716E-2	1.900811E-2	-1.013632E+1	2.732853E-2	1.183011E-2	6.697081E-2	2.910311E-2
10/19/2017  17:34:44.790609	6.996461E-1	1.828100E-2	1.391770E-2	-1.014142E+1	3.242842E-2	1.946206E-2	6.951371E-2	2.147136E-2
10/19/2017  17:34:44.791609	-1.346662E+0	4.741205E-4	2.409852E-2	-1.013632E+1	1.457878E-2	2.200605E-2	7.459952E-2	3.164702E-2
10/19/2017  17:34:44.792609	-1.483930E+0	5.561801E-3	2.155331E-2	-1.013123E+1	1.967868E-2	9.286120E-3	7.205661E-2	3.164702E-2
10/19/2017  17:34:44.793609	-4.417108E-1	2.591253E-2	1.137250E-2	-1.013632E+1	3.497837E-2	1.946206E-2	6.951371E-2	3.419094E-2
10/19/2017  17:34:44.794609	3.539345E-1	1.828100E-2	1.900811E-2	-1.014142E+1	1.967868E-2	9.286120E-3	7.459952E-2	2.655919E-2
10/19/2017  17:34:44.795609	-2.332670E-1	4.741205E-4	1.646291E-2	-1.013632E+1	2.987847E-2	2.709402E-2	7.459952E-2	3.927877E-2
10/19/2017  17:34:44.796609	1.192794E+0	8.105642E-3	1.137250E-2	-1.013123E+1	2.987847E-2	2.709402E-2	7.205661E-2	3.164702E-2
10/19/2017  17:34:44.797609	2.120623E+0	2.082484E-2	1.391770E-2	-1.013123E+1	3.497837E-2	2.455003E-2	7.968532E-2	2.401527E-2
10/19/2017  17:34:44.798609	1.139412E+0	5.561801E-3	2.664372E-2	-1.013632E+1	1.457878E-2	1.946206E-2	7.714242E-2	3.419094E-2
10/19/2017  17:34:44.799609	1.927431E+0	8.105642E-3	1.391770E-2	-1.013378E+1	2.222863E-2	1.437409E-2	6.697081E-2	2.655919E-2
10/19/2017  17:34:44.800609	1.886759E+0	2.082484E-2	1.191689E-3	-1.013632E+1	2.732853E-2	2.963800E-2	7.714242E-2	2.401527E-2
								
10/19/2017  17:34:44.801609	2.093276E-2	1.573716E-2	2.409852E-2	-1.013632E+1	2.222863E-2	1.946206E-2	8.731403E-2	4.436661E-2
10/19/2017  17:34:44.802609	-1.219562E+0	1.064948E-2	1.900811E-2	-1.013887E+1	2.222863E-2	1.437409E-2	7.205661E-2	3.927877E-2
10/19/2017  17:34:44.803609	-9.882403E-1	1.064948E-2	1.391770E-2	-1.013887E+1	2.732853E-2	2.455003E-2	7.205661E-2	3.673486E-2
10/19/2017  17:34:44.804609	-2.053050E-1	1.828100E-2	1.900811E-2	-1.012105E+1	2.477858E-2	2.963800E-2	7.968532E-2	2.655919E-2
10/19/2017  17:34:44.805609	4.378204E-1	5.561801E-3	2.409852E-2	-1.013123E+1	1.967868E-2	1.691808E-2	8.222822E-2	2.401527E-2
10/19/2017  17:34:44.806609	4.126874E-2	5.561801E-3	1.646291E-2	-1.013123E+1	1.712873E-2	1.437409E-2	6.697081E-2	3.927877E-2
10/19/2017  17:34:44.807609	-9.119804E-1	5.561801E-3	8.827299E-3	-1.013632E+1	2.477858E-2	2.200605E-2	6.951371E-2	2.910311E-2
10/19/2017  17:34:44.808609	-1.781344E+0	1.064948E-2	1.900811E-2	-1.013887E+1	2.477858E-2	2.709402E-2	8.222822E-2	2.655919E-2
10/19/2017  17:34:44.809609	-1.222104E+0	5.561801E-3	3.682453E-2	-1.013632E+1	2.222863E-2	1.183011E-2	7.968532E-2	3.419094E-2
10/19/2017  17:34:44.810609	-9.043544E-1	3.017961E-3	1.137250E-2	-1.013123E+1	2.987847E-2	1.946206E-2	5.934210E-2	3.164702E-2
10/19/2017  17:34:44.811609	1.835919E+0	2.082484E-2	6.282096E-3	-1.014142E+1	2.222863E-2	3.218199E-2	6.951371E-2	2.655919E-2
10/19/2017  17:34:44.812609	4.924446E+0	2.336868E-2	2.155331E-2	-1.013887E+1	1.202884E-2	3.218199E-2	8.222822E-2	2.655919E-2
10/19/2017  17:34:44.813609	5.005790E+0	1.064948E-2	2.409852E-2	-1.013123E+1	1.457878E-2	1.183011E-2	8.222822E-2	3.673486E-2
10/19/2017  17:34:44.814609	2.285853E+0	-2.069720E-3	1.900811E-2	-1.013632E+1	1.712873E-2	1.437409E-2	7.459952E-2	3.927877E-2
10/19/2017  17:34:44.815609	-2.203315E+0	1.064948E-2	1.137250E-2	-1.014905E+1	2.987847E-2	2.455003E-2	6.951371E-2	2.401527E-2
10/19/2017  17:34:44.816609	-3.273209E-1	3.863173E-2	2.155331E-2	-1.014651E+1	1.457878E-2	2.709402E-2	7.714242E-2	3.164702E-2
10/19/2017  17:34:44.817609	-2.518523E+0	1.064948E-2	2.664372E-2	-1.014651E+1	1.967868E-2	1.946206E-2	7.968532E-2	3.164702E-2
10/19/2017  17:34:44.818609	-4.117439E+0	5.561801E-3	1.391770E-2	-1.015415E+1	1.202884E-2	1.691808E-2	6.951371E-2	3.673486E-2
10/19/2017  17:34:44.819609	-4.819031E+0	1.064948E-2	1.391770E-2	-1.014142E+1	2.732853E-2	2.200605E-2	7.205661E-2	3.164702E-2
10/19/2017  17:34:44.820609	-3.123518E+0	2.082484E-2	1.900811E-2	-1.014142E+1	2.987847E-2	2.709402E-2	7.968532E-2	2.910311E-2
10/19/2017  17:34:44.821609	4.581564E-1	1.319332E-2	2.409852E-2	-1.014651E+1	1.457878E-2	2.455003E-2	7.968532E-2	3.927877E-2
10/19/2017  17:34:44.822609	8.597920E-1	8.105642E-3	1.900811E-2	-1.013378E+1	9.478889E-3	1.691808E-2	6.697081E-2	3.164702E-2
10/19/2017  17:34:44.823609	-4.213748E-1	1.319332E-2	1.137250E-2	-1.013887E+1	2.732853E-2	2.200605E-2	7.205661E-2	3.419094E-2
10/19/2017  17:34:44.824609	-4.162908E-1	2.082484E-2	2.155331E-2	-1.013887E+1	1.967868E-2	2.455003E-2	8.222822E-2	3.419094E-2
10/19/2017  17:34:44.825609	8.445400E-1	1.064948E-2	1.646291E-2	-1.014905E+1	1.457878E-2	1.437409E-2	8.222822E-2	3.419094E-2
10/19/2017  17:34:44.826609	3.869804E-1	5.561801E-3	2.155331E-2	-1.013123E+1	1.457878E-2	1.437409E-2	7.459952E-2	3.419094E-2
10/19/2017  17:34:44.827609	-2.360919E+0	8.105642E-3	1.900811E-2	-1.013632E+1	2.732853E-2	1.437409E-2	7.205661E-2	2.910311E-2
10/19/2017  17:34:44.828609	-4.353845E+0	1.828100E-2	1.137250E-2	-1.015669E+1	2.987847E-2	2.709402E-2	6.951371E-2	1.892744E-2
10/19/2017  17:34:44.829609	7.098141E-1	1.828100E-2	1.900811E-2	-1.015924E+1	1.967868E-2	2.963800E-2	8.731403E-2	2.655919E-2
10/19/2017  17:34:44.830609	4.995622E+0	5.561801E-3	3.173413E-2	-1.013378E+1	1.202884E-2	1.691808E-2	7.968532E-2	3.164702E-2
10/19/2017  17:34:44.831609	5.013416E+0	1.064948E-2	1.900811E-2	-1.011850E+1	2.222863E-2	1.691808E-2	8.731403E-2	2.910311E-2
10/19/2017  17:34:44.832609	3.666157E+0	2.336868E-2	8.827299E-3	-1.013887E+1	3.242842E-2	1.691808E-2	6.697081E-2	3.164702E-2
10/19/2017  17:34:44.833609	2.725618E+0	1.828100E-2	2.155331E-2	-1.014651E+1	2.222863E-2	2.963800E-2	6.697081E-2	2.401527E-2
								
10/19/2017  17:34:44.834609	1.103824E+0	1.828100E-2	2.155331E-2	-1.014142E+1	1.202884E-2	2.455003E-2	7.968532E-2	3.419094E-2
10/19/2017  17:34:44.835609	-8.153845E-1	1.573716E-2	1.900811E-2	-1.014142E+1	1.967868E-2	1.946206E-2	8.222822E-2	3.927877E-2
10/19/2017  17:34:44.836609	5.010874E+0	8.105642E-3	-1.353514E-3	-1.013123E+1	3.242842E-2	1.691808E-2	6.951371E-2	2.910311E-2
10/19/2017  17:34:44.837609	4.062709E+0	2.336868E-2	1.391770E-2	-1.014396E+1	2.222863E-2	2.709402E-2	6.951371E-2	2.910311E-2
10/19/2017  17:34:44.838609	-4.953757E+0	1.828100E-2	2.409852E-2	-1.014905E+1	1.712873E-2	2.455003E-2	7.968532E-2	3.419094E-2
10/19/2017  17:34:44.839609	-4.935963E+0	3.863173E-2	1.646291E-2	-1.015924E+1	1.712873E-2	1.946206E-2	8.477112E-2	3.673486E-2
10/19/2017  17:34:44.840609	-3.954752E+0	8.105642E-3	6.282096E-3	-1.014651E+1	2.987847E-2	1.691808E-2	6.951371E-2	4.182269E-2
10/19/2017  17:34:44.841609	-9.374004E-1	1.319332E-2	8.827299E-3	-1.013632E+1	1.967868E-2	2.963800E-2	6.697081E-2	2.655919E-2
10/19/2017  17:34:44.842609	3.531432E+0	2.082484E-2	1.900811E-2	-1.014142E+1	1.967868E-2	2.709402E-2	8.222822E-2	2.401527E-2
10/19/2017  17:34:44.843609	1.749491E+0	1.573716E-2	2.664372E-2	-1.013123E+1	2.477858E-2	2.200605E-2	8.477112E-2	3.673486E-2
10/19/2017  17:34:44.844609	-1.923695E+0	1.064948E-2	1.900811E-2	-1.013887E+1	1.967868E-2	1.437409E-2	7.459952E-2	3.673486E-2
10/19/2017  17:34:44.845609	-1.570358E+0	1.064948E-2	1.391770E-2	-1.014396E+1	2.222863E-2	1.691808E-2	6.442791E-2	3.164702E-2
10/19/2017  17:34:44.846609	1.813041E+0	1.828100E-2	1.646291E-2	-1.013887E+1	1.967868E-2	2.709402E-2	7.714242E-2	2.655919E-2
10/19/2017  17:34:44.847609	-9.551944E-1	1.573716E-2	1.900811E-2	-1.013887E+1	1.712873E-2	1.946206E-2	7.968532E-2	3.927877E-2
10/19/2017  17:34:44.848609	2.659526E+0	5.561801E-3	1.900811E-2	-1.013378E+1	2.222863E-2	1.691808E-2	6.697081E-2	3.419094E-2
10/19/2017  17:34:44.849609	1.650353E+0	5.561801E-3	8.827299E-3	-1.013378E+1	2.477858E-2	1.946206E-2	6.697081E-2	2.147136E-2
10/19/2017  17:34:44.850609	-1.089920E+0	1.828100E-2	1.900811E-2	-1.014651E+1	2.222863E-2	2.709402E-2	7.968532E-2	3.164702E-2
10/19/2017  17:34:44.851609	-1.585610E+0	1.828100E-2	2.918892E-2	-1.014142E+1	1.967868E-2	2.200605E-2	8.222822E-2	3.164702E-2
10/19/2017  17:34:44.852609	-1.916069E+0	8.105642E-3	1.646291E-2	-1.013887E+1	1.967868E-2	1.946206E-2	6.951371E-2	3.927877E-2
10/19/2017  17:34:44.853609	-1.097546E+0	5.561801E-3	1.646291E-2	-1.013887E+1	2.477858E-2	2.200605E-2	6.697081E-2	3.419094E-2
10/19/2017  17:34:44.854609	6.386382E-1	2.336868E-2	1.900811E-2	-1.014142E+1	2.477858E-2	2.963800E-2	8.985693E-2	2.401527E-2
10/19/2017  17:34:44.855609	8.521660E-1	1.064948E-2	3.173413E-2	-1.013632E+1	1.967868E-2	2.200605E-2	8.731403E-2	3.164702E-2
10/19/2017  17:34:44.856609	7.606541E-1	4.741205E-4	1.900811E-2	-1.013378E+1	2.222863E-2	1.946206E-2	7.459952E-2	3.164702E-2
10/19/2017  17:34:44.857609	4.556144E-1	1.573716E-2	1.191689E-3	-1.013887E+1	1.712873E-2	9.286120E-3	7.459952E-2	2.655919E-2
10/19/2017  17:34:44.858609	-7.442085E-1	1.828100E-2	1.900811E-2	-1.013887E+1	2.222863E-2	1.946206E-2	7.714242E-2	2.910311E-2
10/19/2017  17:34:44.859609	-2.317705E+0	1.573716E-2	1.646291E-2	-1.014142E+1	2.477858E-2	3.472597E-2	7.459952E-2	3.927877E-2
10/19/2017  17:34:44.860609	-2.546485E+0	1.064948E-2	1.900811E-2	-1.015160E+1	2.222863E-2	1.946206E-2	7.459952E-2	3.164702E-2
10/19/2017  17:34:44.861609	9.640139E-1	1.064948E-2	2.155331E-2	-1.013887E+1	2.477858E-2	1.183011E-2	7.459952E-2	2.401527E-2
10/19/2017  17:34:44.862609	5.471263E-1	1.319332E-2	1.900811E-2	-1.013632E+1	2.987847E-2	2.709402E-2	7.205661E-2	2.910311E-2
10/19/2017  17:34:44.863609	2.115826E-1	1.319332E-2	1.900811E-2	-1.013632E+1	2.222863E-2	1.946206E-2	7.205661E-2	3.164702E-2
10/19/2017  17:34:44.864609	2.438373E+0	-9.701241E-3	1.900811E-2	-1.012105E+1	1.202884E-2	1.691808E-2	7.205661E-2	3.419094E-2
10/19/2017  17:34:44.865609	1.709106E-1	1.573716E-2	2.155331E-2	-1.013123E+1	1.967868E-2	2.455003E-2	7.205661E-2	3.164702E-2
10/19/2017  17:34:44.866609	-9.933243E-1	2.336868E-2	1.900811E-2	-1.013378E+1	2.987847E-2	1.946206E-2	7.968532E-2	2.910311E-2
								
10/19/2017  17:34:44.867609	8.775860E-1	1.064948E-2	1.391770E-2	-1.013378E+1	2.477858E-2	2.200605E-2	7.205661E-2	4.182269E-2
10/19/2017  17:34:44.868609	1.952851E+0	1.064948E-2	1.391770E-2	-1.013887E+1	1.967868E-2	1.946206E-2	7.205661E-2	2.147136E-2
10/19/2017  17:34:44.869609	1.876591E+0	1.319332E-2	1.646291E-2	-1.014142E+1	2.477858E-2	1.691808E-2	7.459952E-2	2.655919E-2
10/19/2017  17:34:44.870609	2.400243E+0	1.319332E-2	2.409852E-2	-1.012869E+1	1.202884E-2	1.946206E-2	8.477112E-2	3.164702E-2
10/19/2017  17:34:44.871609	1.655437E+0	5.561801E-3	2.409852E-2	-1.013887E+1	2.477858E-2	1.437409E-2	7.205661E-2	3.419094E-2
10/19/2017  17:34:44.872609	-3.349469E-1	1.064948E-2	1.391770E-2	-1.013632E+1	2.222863E-2	2.200605E-2	6.951371E-2	2.147136E-2
10/19/2017  17:34:44.873609	2.041821E+0	2.082484E-2	2.409852E-2	-1.013632E+1	2.222863E-2	2.455003E-2	7.714242E-2	2.655919E-2
10/19/2017  17:34:44.874609	4.444009E+0	1.828100E-2	3.173413E-2	-1.013123E+1	1.457878E-2	1.946206E-2	8.222822E-2	3.164702E-2
10/19/2017  17:34:44.875609	-3.374889E-1	5.561801E-3	1.900811E-2	-1.013632E+1	1.712873E-2	1.183011E-2	6.697081E-2	3.927877E-2
10/19/2017  17:34:44.876609	-2.543943E+0	3.017961E-3	1.391770E-2	-1.014142E+1	2.732853E-2	2.455003E-2	6.697081E-2	2.401527E-2
10/19/2017  17:34:44.877609	-3.756189E-1	2.082484E-2	1.900811E-2	-1.014651E+1	2.477858E-2	2.709402E-2	8.477112E-2	2.401527E-2
10/19/2017  17:34:44.878609	-9.729883E-1	1.573716E-2	2.155331E-2	-1.014651E+1	1.712873E-2	1.691808E-2	7.968532E-2	2.910311E-2
10/19/2017  17:34:44.879609	-2.765097E+0	8.105642E-3	1.646291E-2	-1.013632E+1	2.222863E-2	1.437409E-2	6.442791E-2	3.419094E-2
10/19/2017  17:34:44.880609	9.106320E-1	1.319332E-2	8.827299E-3	-1.013378E+1	1.457878E-2	2.709402E-2	6.951371E-2	2.910311E-2
10/19/2017  17:34:44.881609	-2.071131E+0	2.591253E-2	2.664372E-2	-1.015415E+1	9.478889E-3	2.709402E-2	7.968532E-2	2.655919E-2
10/19/2017  17:34:44.882609	9.719269E-2	5.561801E-3	2.664372E-2	-1.013123E+1	1.967868E-2	9.286120E-3	8.222822E-2	3.927877E-2
10/19/2017  17:34:44.883609	1.757117E+0	1.064948E-2	1.391770E-2	-1.012869E+1	2.477858E-2	1.437409E-2	6.697081E-2	2.910311E-2
10/19/2017  17:34:44.884609	2.425663E+0	2.082484E-2	1.137250E-2	-1.013632E+1	2.987847E-2	2.200605E-2	7.459952E-2	2.401527E-2
10/19/2017  17:34:44.885609	5.877982E-1	1.319332E-2	2.664372E-2	-1.014651E+1	2.222863E-2	2.709402E-2	8.222822E-2	3.164702E-2
10/19/2017  17:34:44.886609	-4.946131E+0	1.573716E-2	1.900811E-2	-1.014142E+1	1.967868E-2	9.286120E-3	7.459952E-2	3.673486E-2
10/19/2017  17:34:44.887609	-3.934416E+0	8.105642E-3	1.137250E-2	-1.014651E+1	2.732853E-2	2.455003E-2	6.697081E-2	3.419094E-2
10/19/2017  17:34:44.888609	7.504861E-1	2.336868E-2	1.900811E-2	-1.013632E+1	1.967868E-2	2.709402E-2	7.459952E-2	2.401527E-2
10/19/2017  17:34:44.889609	-3.502276E+0	1.573716E-2	2.664372E-2	-1.013887E+1	2.987847E-2	1.946206E-2	8.731403E-2	3.164702E-2
10/19/2017  17:34:44.890609	-4.259791E+0	8.105642E-3	2.409852E-2	-1.013632E+1	2.477858E-2	1.437409E-2	6.951371E-2	3.927877E-2
10/19/2017  17:34:44.891609	6.538902E-1	1.064948E-2	1.137250E-2	-1.014905E+1	1.967868E-2	1.946206E-2	6.188501E-2	2.401527E-2
10/19/2017  17:34:44.892609	3.592440E+0	1.828100E-2	1.391770E-2	-1.014905E+1	2.477858E-2	2.963800E-2	8.222822E-2	2.147136E-2
10/19/2017  17:34:44.893609	2.283311E+0	1.573716E-2	2.918892E-2	-1.012869E+1	1.457878E-2	2.709402E-2	8.222822E-2	4.182269E-2
10/19/2017  17:34:44.894609	9.157160E-1	8.105642E-3	1.900811E-2	-1.013123E+1	1.967868E-2	1.437409E-2	7.205661E-2	3.927877E-2
10/19/2017  17:34:44.895609	2.062157E+0	1.319332E-2	1.646291E-2	-1.013887E+1	2.987847E-2	2.455003E-2	6.951371E-2	3.673486E-2
10/19/2017  17:34:44.896609	1.439367E+0	1.064948E-2	2.155331E-2	-1.013887E+1	2.222863E-2	1.437409E-2	7.459952E-2	2.401527E-2
10/19/2017  17:34:44.897609	1.729155E+0	2.336868E-2	1.646291E-2	-1.014396E+1	1.712873E-2	2.709402E-2	7.968532E-2	2.401527E-2
10/19/2017  17:34:44.898609	3.742704E-1	1.064948E-2	2.409852E-2	-1.015160E+1	1.457878E-2	2.200605E-2	7.205661E-2	3.927877E-2
10/19/2017  17:34:44.899609	-2.655791E+0	-2.069720E-3	1.391770E-2	-1.013378E+1	3.242842E-2	1.437409E-2	7.459952E-2	3.673486E-2
								
10/19/2017  17:34:44.900609	-6.755746E-1	1.828100E-2	1.391770E-2	-1.013887E+1	2.732853E-2	1.946206E-2	7.714242E-2	2.401527E-2
10/19/2017  17:34:44.901609	3.895224E-1	2.591253E-2	2.918892E-2	-1.014651E+1	2.477858E-2	2.963800E-2	7.714242E-2	2.910311E-2
10/19/2017  17:34:44.902609	-1.489014E+0	1.828100E-2	1.646291E-2	-1.014142E+1	1.457878E-2	1.946206E-2	7.205661E-2	3.419094E-2
10/19/2017  17:34:44.903609	2.730702E+0	1.319332E-2	3.427933E-2	-1.013632E+1	1.712873E-2	1.946206E-2	7.205661E-2	3.673486E-2
10/19/2017  17:34:44.904609	3.091666E+0	1.064948E-2	1.900811E-2	-1.013378E+1	2.732853E-2	1.946206E-2	7.205661E-2	3.164702E-2
10/19/2017  17:34:44.905609	-3.232824E+0	1.319332E-2	1.391770E-2	-1.013378E+1	2.477858E-2	2.709402E-2	7.205661E-2	3.419094E-2
10/19/2017  17:34:44.906609	-3.827652E+0	5.561801E-3	1.900811E-2	-1.015415E+1	1.457878E-2	1.946206E-2	7.205661E-2	3.164702E-2
10/19/2017  17:34:44.907609	2.222303E+0	1.319332E-2	2.409852E-2	-1.013887E+1	1.457878E-2	1.691808E-2	8.222822E-2	2.910311E-2
10/19/2017  17:34:44.908609	4.489765E+0	2.082484E-2	1.391770E-2	-1.011341E+1	2.477858E-2	1.691808E-2	7.714242E-2	3.927877E-2
10/19/2017  17:34:44.909609	1.749491E+0	1.319332E-2	2.155331E-2	-1.013378E+1	1.967868E-2	1.946206E-2	7.459952E-2	3.164702E-2
10/19/2017  17:34:44.910609	-6.730326E-1	1.319332E-2	1.900811E-2	-1.012869E+1	1.712873E-2	2.200605E-2	6.697081E-2	2.401527E-2
10/19/2017  17:34:44.911609	-1.707626E+0	1.828100E-2	1.646291E-2	-1.014651E+1	2.222863E-2	2.709402E-2	7.968532E-2	2.401527E-2
10/19/2017  17:34:44.912609	-3.014212E+0	1.064948E-2	2.409852E-2	-1.013632E+1	1.457878E-2	2.200605E-2	8.477112E-2	3.164702E-2
10/19/2017  17:34:44.913609	-3.812400E+0	1.064948E-2	1.391770E-2	-1.014142E+1	1.712873E-2	1.437409E-2	7.205661E-2	3.927877E-2
10/19/2017  17:34:44.914609	7.377761E-1	1.319332E-2	1.646291E-2	-1.013887E+1	9.478889E-3	1.946206E-2	7.968532E-2	3.164702E-2
10/19/2017  17:34:44.915609	4.921904E+0	1.573716E-2	1.191689E-3	-1.012869E+1	3.242842E-2	2.963800E-2	7.205661E-2	2.401527E-2
10/19/2017  17:34:44.916609	2.537510E+0	2.591253E-2	2.155331E-2	-1.014142E+1	2.477858E-2	2.709402E-2	7.459952E-2	3.673486E-2
10/19/2017  17:34:44.917609	1.887046E-1	1.319332E-2	2.155331E-2	-1.012359E+1	1.712873E-2	1.946206E-2	7.714242E-2	3.927877E-2
10/19/2017  17:34:44.918609	1.655437E+0	4.741205E-4	1.391770E-2	-1.013378E+1	2.222863E-2	1.946206E-2	7.205661E-2	2.910311E-2
10/19/2017  17:34:44.919609	3.167926E+0	1.064948E-2	1.391770E-2	-1.012105E+1	2.732853E-2	2.709402E-2	7.205661E-2	3.164702E-2
10/19/2017  17:34:44.920609	8.547080E-1	2.082484E-2	1.391770E-2	-1.014142E+1	3.242842E-2	2.963800E-2	6.951371E-2	1.638352E-2
10/19/2017  17:34:44.921609	-3.621750E+0	1.319332E-2	2.409852E-2	-1.015924E+1	2.477858E-2	3.218199E-2	6.951371E-2	2.147136E-2
10/19/2017  17:34:44.922609	-2.907449E+0	3.017961E-3	2.664372E-2	-1.014396E+1	1.202884E-2	2.455003E-2	8.222822E-2	3.164702E-2
10/19/2017  17:34:44.923609	-1.128050E+0	1.064948E-2	1.900811E-2	-1.013632E+1	2.477858E-2	1.183011E-2	8.985693E-2	3.164702E-2
10/19/2017  17:34:44.924609	-2.688837E+0	2.336868E-2	8.827299E-3	-1.014651E+1	2.987847E-2	1.946206E-2	6.951371E-2	2.910311E-2
10/19/2017  17:34:44.925609	-3.578249E-1	8.105642E-3	2.155331E-2	-1.013887E+1	2.222863E-2	2.455003E-2	6.697081E-2	2.401527E-2
10/19/2017  17:34:44.926609	3.056078E+0	1.319332E-2	3.736893E-3	-1.013378E+1	9.478889E-3	2.709402E-2	7.459952E-2	3.164702E-2
10/19/2017  17:34:44.927609	1.805415E+0	1.828100E-2	1.900811E-2	-1.013632E+1	1.967868E-2	1.946206E-2	7.205661E-2	3.164702E-2
10/19/2017  17:34:44.928609	-1.082294E+0	5.561801E-3	1.646291E-2	-1.013378E+1	2.477858E-2	1.437409E-2	7.459952E-2	2.910311E-2
10/19/2017  17:34:44.929609	-7.925065E-1	5.561801E-3	1.137250E-2	-1.014396E+1	2.477858E-2	2.455003E-2	6.951371E-2	2.910311E-2
10/19/2017  17:34:44.930609	1.352940E+0	1.064948E-2	1.900811E-2	-1.014905E+1	2.477858E-2	3.981394E-2	7.205661E-2	2.147136E-2
10/19/2017  17:34:44.931609	5.547523E-1	2.845637E-2	2.409852E-2	-1.013378E+1	2.222863E-2	1.946206E-2	8.222822E-2	3.164702E-2
10/19/2017  17:34:44.932609	2.888306E+0	5.561801E-3	1.646291E-2	-1.013378E+1	2.222863E-2	1.437409E-2	7.459952E-2	3.927877E-2
								
10/19/2017  17:34:44.933609	-7.264146E-1	3.017961E-3	1.391770E-2	-1.015160E+1	1.967868E-2	1.946206E-2	6.697081E-2	3.164702E-2
10/19/2017  17:34:44.934609	1.561383E+0	2.082484E-2	6.282096E-3	-1.014142E+1	2.477858E-2	2.963800E-2	7.968532E-2	2.655919E-2
10/19/2017  17:34:44.935609	1.848629E+0	2.082484E-2	2.664372E-2	-1.014142E+1	2.987847E-2	2.709402E-2	8.477112E-2	3.419094E-2
10/19/2017  17:34:44.936609	3.612776E+0	1.064948E-2	2.409852E-2	-1.013123E+1	1.712873E-2	1.437409E-2	7.968532E-2	3.673486E-2
10/19/2017  17:34:44.937609	-7.518345E-1	8.105642E-3	2.155331E-2	-1.012869E+1	1.457878E-2	2.200605E-2	7.459952E-2	3.673486E-2
10/19/2017  17:34:44.938609	-4.918169E+0	1.573716E-2	2.155331E-2	-1.013632E+1	2.732853E-2	2.455003E-2	7.459952E-2	2.910311E-2
10/19/2017  17:34:44.939609	-2.035543E+0	1.064948E-2	1.391770E-2	-1.015669E+1	2.222863E-2	2.963800E-2	8.222822E-2	2.910311E-2
10/19/2017  17:34:44.940609	5.801723E-1	1.064948E-2	2.664372E-2	-1.015415E+1	1.457878E-2	1.946206E-2	7.459952E-2	3.164702E-2
10/19/2017  17:34:44.941609	4.835763E-1	8.105642E-3	1.900811E-2	-1.013123E+1	1.967868E-2	1.946206E-2	7.459952E-2	2.655919E-2
10/19/2017  17:34:44.942609	-2.281830E-1	1.319332E-2	1.137250E-2	-1.012869E+1	2.987847E-2	2.455003E-2	7.714242E-2	3.164702E-2
10/19/2017  17:34:44.943609	-2.358377E+0	2.082484E-2	1.900811E-2	-1.015160E+1	1.967868E-2	2.455003E-2	7.205661E-2	2.147136E-2
10/19/2017  17:34:44.944609	-4.280127E+0	1.064948E-2	2.664372E-2	-1.016687E+1	1.457878E-2	1.437409E-2	7.459952E-2	3.164702E-2
10/19/2017  17:34:44.945609	4.962863E-1	3.017961E-3	2.155331E-2	-1.013632E+1	2.222863E-2	1.437409E-2	7.714242E-2	3.673486E-2
10/19/2017  17:34:44.946609	1.403780E+0	8.105642E-3	1.137250E-2	-1.013378E+1	2.477858E-2	1.946206E-2	7.205661E-2	2.910311E-2
10/19/2017  17:34:44.947609	-1.148386E+0	2.082484E-2	8.827299E-3	-1.014396E+1	2.477858E-2	1.946206E-2	7.459952E-2	2.147136E-2
10/19/2017  17:34:44.948609	2.402785E+0	1.319332E-2	2.155331E-2	-1.014651E+1	1.712873E-2	2.709402E-2	7.714242E-2	3.164702E-2
10/19/2017  17:34:44.949609	-6.145667E-1	1.064948E-2	1.646291E-2	-1.013632E+1	9.478889E-3	2.455003E-2	7.714242E-2	4.182269E-2
10/19/2017  17:34:44.950609	-1.743214E+0	1.319332E-2	1.900811E-2	-1.012614E+1	2.732853E-2	1.437409E-2	7.714242E-2	3.927877E-2
10/19/2017  17:34:44.951609	-4.518788E-1	2.082484E-2	1.137250E-2	-1.014142E+1	3.752832E-2	2.455003E-2	6.697081E-2	2.147136E-2
10/19/2017  17:34:44.952609	1.571551E+0	1.064948E-2	1.900811E-2	-1.014651E+1	1.967868E-2	2.709402E-2	7.459952E-2	2.655919E-2
10/19/2017  17:34:44.953609	1.378647E-1	1.064948E-2	2.918892E-2	-1.013123E+1	1.712873E-2	3.726996E-2	8.222822E-2	3.419094E-2
10/19/2017  17:34:44.954609	-2.383510E-1	3.100021E-2	1.646291E-2	-1.014905E+1	1.457878E-2	1.437409E-2	7.459952E-2	3.927877E-2
10/19/2017  17:34:44.955609	2.939146E+0	1.319332E-2	1.900811E-2	-1.014142E+1	2.222863E-2	6.742135E-3	7.205661E-2	2.910311E-2
10/19/2017  17:34:44.956609	4.754132E+0	-2.069720E-3	1.900811E-2	-1.013123E+1	2.732853E-2	1.946206E-2	7.205661E-2	2.910311E-2
10/19/2017  17:34:44.957609	2.285853E+0	1.064948E-2	1.900811E-2	-1.012869E+1	2.477858E-2	2.200605E-2	7.459952E-2	2.910311E-2
10/19/2017  17:34:44.958609	1.223298E+0	1.064948E-2	2.155331E-2	-1.012869E+1	2.987847E-2	1.183011E-2	8.477112E-2	3.164702E-2
10/19/2017  17:34:44.959609	-1.888108E+0	8.105642E-3	1.646291E-2	-1.014142E+1	2.477858E-2	1.437409E-2	7.205661E-2	3.673486E-2
10/19/2017  17:34:44.960609	-2.157559E+0	1.064948E-2	1.391770E-2	-1.014142E+1	1.712873E-2	1.946206E-2	6.951371E-2	2.910311E-2
10/19/2017  17:34:44.961609	-5.688107E-1	1.828100E-2	2.155331E-2	-1.014396E+1	2.222863E-2	2.455003E-2	7.714242E-2	2.147136E-2
10/19/2017  17:34:44.962609	5.143673E-2	1.319332E-2	1.900811E-2	-1.014142E+1	4.378993E-3	2.200605E-2	8.222822E-2	2.147136E-2
10/19/2017  17:34:44.963609	-4.595048E-1	1.064948E-2	8.827299E-3	-1.015160E+1	1.967868E-2	2.455003E-2	7.714242E-2	3.927877E-2
10/19/2017  17:34:44.964609	-1.137931E-1	1.319332E-2	1.900811E-2	-1.013887E+1	2.222863E-2	1.946206E-2	7.459952E-2	4.945444E-2
10/19/2017  17:34:44.965609	1.276967E-1	1.573716E-2	1.391770E-2	-1.012869E+1	1.967868E-2	1.946206E-2	7.459952E-2	2.910311E-2
								
10/19/2017  17:34:44.966609	5.967806E-4	2.591253E-2	2.155331E-2	-1.014396E+1	2.477858E-2	2.709402E-2	7.714242E-2	2.401527E-2
10/19/2017  17:34:44.967609	1.454906E-1	1.064948E-2	2.409852E-2	-1.014905E+1	1.712873E-2	1.183011E-2	7.205661E-2	3.164702E-2
10/19/2017  17:34:44.968609	-1.824271E-1	3.017961E-3	1.900811E-2	-1.012869E+1	1.967868E-2	1.437409E-2	7.205661E-2	3.673486E-2
10/19/2017  17:34:44.969609	-3.781609E-1	1.064948E-2	1.391770E-2	-1.012869E+1	2.222863E-2	2.200605E-2	8.731403E-2	3.164702E-2
10/19/2017  17:34:44.970609	1.200420E+0	1.319332E-2	1.391770E-2	-1.013887E+1	2.732853E-2	1.437409E-2	6.951371E-2	3.164702E-2
10/19/2017  17:34:44.971609	1.589345E+0	2.082484E-2	1.900811E-2	-1.014905E+1	2.477858E-2	2.963800E-2	6.951371E-2	2.910311E-2
10/19/2017  17:34:44.972609	-1.285654E+0	1.319332E-2	4.191494E-2	-1.014142E+1	1.457878E-2	2.709402E-2	7.968532E-2	3.164702E-2
10/19/2017  17:34:44.973609	-2.561450E-1	2.082484E-2	1.900811E-2	-1.013887E+1	1.967868E-2	1.946206E-2	7.205661E-2	3.673486E-2
10/19/2017  17:34:44.974609	-1.547480E+0	1.319332E-2	1.646291E-2	-1.014651E+1	2.732853E-2	2.455003E-2	6.951371E-2	2.910311E-2
10/19/2017  17:34:44.975609	-4.727519E+0	2.082484E-2	1.391770E-2	-1.015669E+1	2.222863E-2	2.709402E-2	6.697081E-2	2.655919E-2
10/19/2017  17:34:44.976609	-4.740229E+0	2.082484E-2	2.409852E-2	-1.014905E+1	1.967868E-2	1.946206E-2	7.459952E-2	2.401527E-2
10/19/2017  17:34:44.977609	-3.380260E+0	2.591253E-2	2.664372E-2	-1.013887E+1	1.967868E-2	1.691808E-2	8.222822E-2	3.673486E-2
10/19/2017  17:34:44.978609	2.916268E+0	8.105642E-3	1.646291E-2	-1.013378E+1	2.222863E-2	4.198150E-3	7.459952E-2	3.927877E-2
10/19/2017  17:34:44.979609	4.998164E+0	1.828100E-2	1.391770E-2	-1.014142E+1	3.242842E-2	1.946206E-2	6.697081E-2	3.419094E-2
10/19/2017  17:34:44.980609	-2.378713E+0	2.082484E-2	1.900811E-2	-1.013887E+1	1.967868E-2	2.455003E-2	7.205661E-2	2.655919E-2
10/19/2017  17:34:44.981609	1.612223E+0	1.319332E-2	1.900811E-2	-1.012614E+1	4.007827E-2	1.946206E-2	7.968532E-2	2.655919E-2
10/19/2017  17:34:44.982609	3.025574E+0	1.064948E-2	1.137250E-2	-1.014651E+1	1.967868E-2	2.200605E-2	7.459952E-2	4.182269E-2
10/19/2017  17:34:44.983609	-1.105172E+0	4.741205E-4	2.155331E-2	-1.013632E+1	9.478889E-3	1.437409E-2	6.697081E-2	3.927877E-2
10/19/2017  17:34:44.984609	-4.104730E+0	1.319332E-2	8.827299E-3	-1.014905E+1	2.477858E-2	1.946206E-2	7.714242E-2	2.910311E-2
10/19/2017  17:34:44.985609	-4.600419E+0	1.319332E-2	2.155331E-2	-1.015160E+1	2.222863E-2	2.200605E-2	7.459952E-2	2.655919E-2
10/19/2017  17:34:44.986609	-3.888660E+0	1.573716E-2	8.827299E-3	-1.014905E+1	2.222863E-2	2.200605E-2	7.459952E-2	3.419094E-2
10/19/2017  17:34:44.987609	-4.933421E+0	1.064948E-2	2.155331E-2	-1.014396E+1	1.712873E-2	1.946206E-2	7.459952E-2	4.182269E-2
10/19/2017  17:34:44.988609	-4.297921E+0	1.573716E-2	1.900811E-2	-1.013887E+1	2.222863E-2	1.437409E-2	7.205661E-2	2.655919E-2
10/19/2017  17:34:44.989609	2.471419E+0	1.319332E-2	2.155331E-2	-1.013887E+1	2.732853E-2	1.946206E-2	7.459952E-2	2.910311E-2
10/19/2017  17:34:44.990609	5.005790E+0	1.064948E-2	2.155331E-2	-1.013123E+1	1.712873E-2	2.455003E-2	7.205661E-2	3.927877E-2
10/19/2017  17:34:44.991609	5.008332E+0	1.064948E-2	8.827299E-3	-1.012869E+1	1.457878E-2	2.455003E-2	7.714242E-2	3.419094E-2
10/19/2017  17:34:44.992609	4.962576E+0	1.573716E-2	1.900811E-2	-1.012869E+1	1.967868E-2	2.200605E-2	8.477112E-2	2.147136E-2
10/19/2017  17:34:44.993609	-3.395512E+0	1.064948E-2	3.173413E-2	-1.014396E+1	2.987847E-2	1.691808E-2	7.459952E-2	3.164702E-2
10/19/2017  17:34:44.994609	-4.925795E+0	8.105642E-3	1.900811E-2	-1.014651E+1	2.222863E-2	2.200605E-2	7.205661E-2	3.927877E-2
10/19/2017  17:34:44.995609	1.378647E-1	1.064948E-2	2.409852E-2	-1.013632E+1	2.987847E-2	1.691808E-2	6.951371E-2	3.164702E-2
10/19/2017  17:34:44.996609	-2.586870E-1	1.319332E-2	1.137250E-2	-1.014396E+1	2.987847E-2	2.963800E-2	7.459952E-2	2.401527E-2
10/19/2017  17:34:44.997609	6.005082E-1	2.082484E-2	8.827299E-3	-1.014396E+1	1.457878E-2	9.286120E-3	7.968532E-2	2.655919E-2
10/19/2017  17:34:44.998609	3.173010E+0	1.064948E-2	2.409852E-2	-1.013123E+1	9.478889E-3	1.946206E-2	7.714242E-2	3.927877E-2
								
10/19/2017  17:34:44.999609	2.611228E+0	8.105642E-3	1.391770E-2	-1.012869E+1	2.987847E-2	9.286120E-3	6.951371E-2	3.927877E-2
10/19/2017  17:34:45.000609	-2.482320E-2	2.591253E-2	1.137250E-2	-1.013632E+1	3.497837E-2	2.709402E-2	7.205661E-2	2.147136E-2
10/19/2017  17:34:45.001609	-1.260234E+0	1.573716E-2	2.409852E-2	-1.014396E+1	1.712873E-2	2.709402E-2	8.222822E-2	3.419094E-2
10/19/2017  17:34:45.002609	-5.078028E-1	1.064948E-2	2.664372E-2	-1.014142E+1	6.928941E-3	1.946206E-2	7.968532E-2	3.927877E-2
10/19/2017  17:34:45.003609	-2.078470E-1	8.105642E-3	1.391770E-2	-1.012869E+1	2.477858E-2	1.691808E-2	7.205661E-2	4.182269E-2
10/19/2017  17:34:45.004609	4.329619E+0	1.573716E-2	1.137250E-2	-1.013378E+1	1.202884E-2	1.946206E-2	7.205661E-2	3.164702E-2
10/19/2017  17:34:45.005609	2.308731E+0	1.064948E-2	1.646291E-2	-1.014396E+1	2.477858E-2	2.200605E-2	7.205661E-2	2.910311E-2
10/19/2017  17:34:45.006609	-1.163638E+0	1.319332E-2	1.646291E-2	-1.013123E+1	4.378993E-3	2.455003E-2	7.968532E-2	3.164702E-2
10/19/2017  17:34:45.007609	-1.336494E+0	1.064948E-2	1.900811E-2	-1.012614E+1	1.967868E-2	2.455003E-2	7.714242E-2	2.910311E-2
10/19/2017  17:34:45.008609	6.668872E-2	1.573716E-2	1.646291E-2	-1.014142E+1	2.732853E-2	1.946206E-2	7.205661E-2	4.182269E-2
10/19/2017  17:34:45.009609	3.666444E-1	1.319332E-2	1.900811E-2	-1.015160E+1	1.967868E-2	2.455003E-2	7.968532E-2	2.401527E-2
10/19/2017  17:34:45.010609	7.377761E-1	1.064948E-2	2.409852E-2	-1.013887E+1	1.457878E-2	2.709402E-2	8.222822E-2	1.638352E-2
10/19/2017  17:34:45.011609	3.256896E+0	5.561801E-3	2.155331E-2	-1.010832E+1	2.222863E-2	1.691808E-2	6.951371E-2	3.673486E-2
10/19/2017  17:34:45.012609	4.355039E+0	1.573716E-2	3.736893E-3	-1.012869E+1	2.732853E-2	1.946206E-2	6.697081E-2	2.147136E-2
10/19/2017  17:34:45.013609	-6.196507E-1	2.082484E-2	2.155331E-2	-1.015924E+1	2.222863E-2	1.946206E-2	6.951371E-2	2.655919E-2
10/19/2017  17:34:45.014609	-3.687842E+0	5.561801E-3	3.173413E-2	-1.014142E+1	1.712873E-2	1.691808E-2	7.968532E-2	3.673486E-2
10/19/2017  17:34:45.015609	-2.022833E+0	8.105642E-3	1.391770E-2	-1.013632E+1	2.477858E-2	1.691808E-2	8.477112E-2	3.927877E-2
10/19/2017  17:34:45.016609	1.169916E+0	1.573716E-2	1.900811E-2	-1.014142E+1	3.752832E-2	1.691808E-2	7.205661E-2	2.147136E-2
10/19/2017  17:34:45.017609	1.980813E+0	1.319332E-2	1.900811E-2	-1.013887E+1	2.222863E-2	2.963800E-2	7.968532E-2	2.655919E-2
10/19/2017  17:34:45.018609	2.039566E-1	1.064948E-2	1.137250E-2	-1.013123E+1	1.202884E-2	1.691808E-2	7.968532E-2	3.927877E-2
10/19/2017  17:34:45.019609	-1.417838E+0	1.064948E-2	1.900811E-2	-1.012869E+1	2.222863E-2	1.691808E-2	7.459952E-2	3.673486E-2
10/19/2017  17:34:45.020609	-6.399866E-1	1.319332E-2	3.736893E-3	-1.013887E+1	3.242842E-2	9.286120E-3	6.951371E-2	2.401527E-2
10/19/2017  17:34:45.021609	1.836206E-1	1.319332E-2	1.900811E-2	-1.014905E+1	1.967868E-2	2.455003E-2	7.714242E-2	2.655919E-2
10/19/2017  17:34:45.022609	2.303647E+0	1.573716E-2	2.664372E-2	-1.013632E+1	1.457878E-2	2.709402E-2	8.222822E-2	4.182269E-2
10/19/2017  17:34:45.023609	-1.849691E-1	2.591253E-2	1.900811E-2	-1.012869E+1	2.477858E-2	1.437409E-2	6.697081E-2	3.673486E-2
10/19/2017  17:34:45.024609	-1.072126E+0	1.064948E-2	1.137250E-2	-1.014905E+1	2.987847E-2	1.437409E-2	6.697081E-2	1.383961E-2
10/19/2017  17:34:45.025609	-1.707626E+0	1.573716E-2	2.409852E-2	-1.015669E+1	1.457878E-2	2.709402E-2	7.205661E-2	1.892744E-2
10/19/2017  17:34:45.026609	4.301944E-1	5.561801E-3	2.409852E-2	-1.012869E+1	1.712873E-2	1.437409E-2	8.222822E-2	3.927877E-2
10/19/2017  17:34:45.027609	4.327364E-1	8.105642E-3	1.137250E-2	-1.012614E+1	2.222863E-2	1.437409E-2	6.697081E-2	4.182269E-2
10/19/2017  17:34:45.028609	4.381074E-2	1.319332E-2	8.827299E-3	-1.014651E+1	2.732853E-2	1.946206E-2	6.951371E-2	2.655919E-2
10/19/2017  17:34:45.029609	-1.354288E+0	2.082484E-2	2.409852E-2	-1.014396E+1	2.222863E-2	2.709402E-2	8.477112E-2	2.910311E-2
10/19/2017  17:34:45.030609	-3.497192E+0	1.573716E-2	2.664372E-2	-1.013887E+1	1.712873E-2	2.709402E-2	8.477112E-2	2.910311E-2
10/19/2017  17:34:45.031609	-2.261781E+0	1.064948E-2	1.391770E-2	-1.013887E+1	2.222863E-2	1.183011E-2	8.222822E-2	4.436661E-2
								
10/19/2017  17:34:45.032609	6.818522E-1	8.105642E-3	1.391770E-2	-1.014396E+1	2.987847E-2	1.946206E-2	7.714242E-2	2.910311E-2
10/19/2017  17:34:45.033609	3.114544E+0	1.064948E-2	1.900811E-2	-1.013887E+1	2.477858E-2	2.963800E-2	7.459952E-2	4.436661E-2
10/19/2017  17:34:45.034609	3.256896E+0	1.319332E-2	2.155331E-2	-1.012105E+1	1.967868E-2	2.709402E-2	8.731403E-2	3.164702E-2
10/19/2017  17:34:45.035609	-4.722148E-1	8.105642E-3	1.900811E-2	-1.012869E+1	2.222863E-2	1.437409E-2	7.459952E-2	3.673486E-2
10/19/2017  17:34:45.036609	1.274138E+0	1.573716E-2	1.391770E-2	-1.015160E+1	3.242842E-2	1.437409E-2	6.951371E-2	2.910311E-2
10/19/2017  17:34:45.037609	2.715450E+0	8.105642E-3	2.664372E-2	-1.013632E+1	2.222863E-2	2.455003E-2	7.459952E-2	2.655919E-2
10/19/2017  17:34:45.038609	-9.907823E-1	1.064948E-2	1.646291E-2	-1.013123E+1	2.477858E-2	2.963800E-2	8.985693E-2	3.164702E-2
10/19/2017  17:34:45.039609	-1.529686E+0	1.828100E-2	2.918892E-2	-1.013887E+1	2.222863E-2	1.183011E-2	8.222822E-2	3.419094E-2
10/19/2017  17:34:45.040609	-4.162908E-1	4.741205E-4	1.900811E-2	-1.014396E+1	2.222863E-2	1.437409E-2	6.442791E-2	3.164702E-2
10/19/2017  17:34:45.041609	-1.646618E+0	1.064948E-2	8.827299E-3	-1.014142E+1	1.967868E-2	2.455003E-2	7.205661E-2	2.910311E-2
10/19/2017  17:34:45.042609	-2.742219E+0	2.845637E-2	1.391770E-2	-1.014651E+1	2.477858E-2	1.946206E-2	7.714242E-2	2.910311E-2
10/19/2017  17:34:45.043609	-4.102188E+0	1.319332E-2	2.409852E-2	-1.015160E+1	1.967868E-2	2.200605E-2	8.222822E-2	2.655919E-2
10/19/2017  17:34:45.044609	-1.346662E+0	5.561801E-3	1.900811E-2	-1.014142E+1	2.477858E-2	2.455003E-2	7.968532E-2	3.673486E-2
10/19/2017  17:34:45.045609	-1.524602E+0	5.561801E-3	1.391770E-2	-1.012614E+1	1.967868E-2	2.455003E-2	7.205661E-2	3.164702E-2
10/19/2017  17:34:45.046609	-1.862688E+0	8.105642E-3	1.391770E-2	-1.014142E+1	3.242842E-2	2.963800E-2	7.459952E-2	2.401527E-2
10/19/2017  17:34:45.047609	1.297016E+0	2.082484E-2	1.646291E-2	-1.015669E+1	2.222863E-2	9.286120E-3	7.459952E-2	2.147136E-2
10/19/2017  17:34:45.048609	3.066246E+0	4.741205E-4	1.900811E-2	-1.013887E+1	2.987847E-2	2.455003E-2	7.714242E-2	2.910311E-2
10/19/2017  17:34:45.049609	-1.036538E+0	8.105642E-3	1.391770E-2	-1.012869E+1	2.732853E-2	1.946206E-2	6.697081E-2	3.673486E-2
10/19/2017  17:34:45.050609	3.030945E-1	1.828100E-2	1.137250E-2	-1.014142E+1	4.262821E-2	2.709402E-2	7.714242E-2	1.892744E-2
10/19/2017  17:34:45.051609	2.753580E+0	1.573716E-2	2.155331E-2	-1.013887E+1	1.457878E-2	2.709402E-2	8.222822E-2	2.147136E-2
10/19/2017  17:34:45.052609	1.800331E+0	8.105642E-3	2.664372E-2	-1.012614E+1	1.829045E-3	2.455003E-2	7.714242E-2	4.436661E-2
10/19/2017  17:34:45.053609	3.564765E-1	8.105642E-3	2.155331E-2	-1.012105E+1	2.987847E-2	1.691808E-2	6.951371E-2	3.673486E-2
10/19/2017  17:34:45.054609	-1.712710E+0	1.319332E-2	8.827299E-3	-1.014142E+1	2.732853E-2	2.200605E-2	6.951371E-2	1.892744E-2
10/19/2017  17:34:45.055609	1.785079E+0	2.082484E-2	1.646291E-2	-1.016178E+1	1.967868E-2	2.455003E-2	7.205661E-2	3.164702E-2
10/19/2017  17:34:45.056609	5.000706E+0	1.319332E-2	2.664372E-2	-1.013378E+1	1.967868E-2	2.455003E-2	7.968532E-2	3.164702E-2
10/19/2017  17:34:45.057609	2.405327E+0	5.561801E-3	1.900811E-2	-1.009814E+1	2.222863E-2	2.200605E-2	8.222822E-2	3.673486E-2
10/19/2017  17:34:45.058609	-2.887113E+0	1.828100E-2	1.137250E-2	-1.013887E+1	2.477858E-2	1.946206E-2	6.951371E-2	1.383961E-2
10/19/2017  17:34:45.059609	-3.392970E+0	2.082484E-2	1.646291E-2	-1.016942E+1	2.222863E-2	1.437409E-2	6.697081E-2	2.910311E-2
10/19/2017  17:34:45.060609	1.304642E+0	1.573716E-2	2.664372E-2	-1.013887E+1	1.712873E-2	2.455003E-2	7.968532E-2	3.164702E-2
10/19/2017  17:34:45.061609	3.061162E+0	1.573716E-2	1.646291E-2	-1.013378E+1	1.967868E-2	1.946206E-2	6.697081E-2	3.673486E-2
10/19/2017  17:34:45.062609	-4.567373E+0	8.105642E-3	6.282096E-3	-1.014905E+1	2.222863E-2	2.200605E-2	7.459952E-2	3.164702E-2
10/19/2017  17:34:45.063609	-4.813947E+0	1.319332E-2	1.900811E-2	-1.014905E+1	2.222863E-2	1.946206E-2	8.985693E-2	3.164702E-2
10/19/2017  17:34:45.064609	-1.827100E+0	1.828100E-2	2.664372E-2	-1.014651E+1	1.712873E-2	2.455003E-2	7.459952E-2	3.419094E-2
								
10/19/2017  17:34:45.065609	1.729155E+0	1.828100E-2	1.391770E-2	-1.013887E+1	1.457878E-2	1.691808E-2	8.222822E-2	3.927877E-2
10/19/2017  17:34:45.066609	8.242040E-1	8.105642E-3	1.191689E-3	-1.012359E+1	1.967868E-2	1.946206E-2	6.951371E-2	2.655919E-2
10/19/2017  17:34:45.067609	1.187710E+0	1.828100E-2	1.900811E-2	-1.014142E+1	2.477858E-2	2.455003E-2	7.714242E-2	2.655919E-2
10/19/2017  17:34:45.068609	-3.244919E-2	2.082484E-2	2.664372E-2	-1.014396E+1	2.222863E-2	3.726996E-2	7.714242E-2	3.673486E-2
10/19/2017  17:34:45.069609	-1.422922E+0	2.591253E-2	1.900811E-2	-1.013887E+1	1.457878E-2	1.946206E-2	7.714242E-2	3.673486E-2
10/19/2017  17:34:45.070609	-1.173806E+0	1.064948E-2	1.391770E-2	-1.013632E+1	1.967868E-2	1.691808E-2	6.951371E-2	2.401527E-2
10/19/2017  17:34:45.071609	-8.789344E-1	4.117557E-2	1.900811E-2	-1.014651E+1	2.987847E-2	2.963800E-2	7.714242E-2	2.655919E-2
10/19/2017  17:34:45.072609	-3.077762E+0	1.319332E-2	2.664372E-2	-1.014396E+1	1.457878E-2	2.200605E-2	7.714242E-2	3.673486E-2
10/19/2017  17:34:45.073609	3.110075E-2	8.105642E-3	1.646291E-2	-1.012869E+1	1.202884E-2	1.946206E-2	7.714242E-2	3.419094E-2
10/19/2017  17:34:45.074609	-1.278028E+0	1.319332E-2	8.827299E-3	-1.014396E+1	2.987847E-2	1.946206E-2	6.951371E-2	3.164702E-2
10/19/2017  17:34:45.075609	-1.916069E+0	2.336868E-2	1.900811E-2	-1.014651E+1	1.712873E-2	2.963800E-2	7.459952E-2	2.655919E-2
10/19/2017  17:34:45.076609	2.105371E+0	8.105642E-3	3.173413E-2	-1.013378E+1	1.457878E-2	2.709402E-2	8.222822E-2	3.673486E-2
10/19/2017  17:34:45.077609	3.884769E+0	5.561801E-3	1.646291E-2	-1.013123E+1	1.967868E-2	2.200605E-2	7.968532E-2	2.401527E-2
10/19/2017  17:34:45.078609	2.832382E+0	1.319332E-2	1.900811E-2	-1.013887E+1	2.732853E-2	1.437409E-2	7.205661E-2	3.164702E-2
10/19/2017  17:34:45.079609	2.720534E+0	2.082484E-2	1.900811E-2	-1.014142E+1	2.477858E-2	2.709402E-2	7.205661E-2	2.910311E-2
10/19/2017  17:34:45.080609	5.008332E+0	1.064948E-2	3.173413E-2	-1.012105E+1	1.457878E-2	2.709402E-2	7.968532E-2	3.164702E-2
10/19/2017  17:34:45.081609	4.998164E+0	5.561801E-3	1.391770E-2	-1.012105E+1	1.967868E-2	1.437409E-2	7.459952E-2	2.147136E-2
10/19/2017  17:34:45.082609	-1.379708E+0	5.561801E-3	1.137250E-2	-1.014396E+1	2.987847E-2	1.183011E-2	6.951371E-2	2.910311E-2
10/19/2017  17:34:45.083609	-4.925795E+0	2.591253E-2	1.137250E-2	-1.015415E+1	2.477858E-2	2.963800E-2	6.951371E-2	2.910311E-2
10/19/2017  17:34:45.084609	-4.923253E+0	2.591253E-2	2.155331E-2	-1.016433E+1	1.457878E-2	2.963800E-2	7.714242E-2	3.164702E-2
10/19/2017  17:34:45.085609	-2.358090E-1	4.741205E-4	3.173413E-2	-1.014651E+1	1.712873E-2	2.200605E-2	7.714242E-2	3.419094E-2
10/19/2017  17:34:45.086609	-9.602784E-1	1.828100E-2	2.409852E-2	-1.014142E+1	2.477858E-2	1.946206E-2	6.697081E-2	3.419094E-2
10/19/2017  17:34:45.087609	-2.932869E+0	1.319332E-2	2.664372E-2	-1.015415E+1	2.222863E-2	2.709402E-2	6.697081E-2	2.655919E-2
10/19/2017  17:34:45.088609	3.364275E-2	2.082484E-2	2.664372E-2	-1.014396E+1	1.202884E-2	2.455003E-2	7.205661E-2	2.401527E-2
10/19/2017  17:34:45.089609	1.996065E+0	5.561801E-3	2.664372E-2	-1.013123E+1	2.477858E-2	9.286120E-3	7.968532E-2	3.419094E-2
10/19/2017  17:34:45.090609	1.589345E+0	-2.069720E-3	1.137250E-2	-1.013632E+1	3.242842E-2	1.691808E-2	6.951371E-2	3.164702E-2
10/19/2017  17:34:45.091609	-7.721705E-1	1.828100E-2	1.646291E-2	-1.014142E+1	2.477858E-2	4.490191E-2	6.951371E-2	3.164702E-2
10/19/2017  17:34:45.092609	-5.052608E-1	3.863173E-2	2.155331E-2	-1.014142E+1	1.457878E-2	2.709402E-2	7.968532E-2	2.910311E-2
10/19/2017  17:34:45.093609	1.535963E+0	8.105642E-3	2.409852E-2	-1.013378E+1	1.712873E-2	6.742135E-3	7.714242E-2	2.401527E-2
10/19/2017  17:34:45.094609	5.115383E-1	1.573716E-2	1.137250E-2	-1.014651E+1	3.242842E-2	2.455003E-2	6.951371E-2	3.419094E-2
10/19/2017  17:34:45.095609	-1.311074E+0	2.082484E-2	2.155331E-2	-1.013887E+1	2.222863E-2	2.963800E-2	7.968532E-2	2.401527E-2
10/19/2017  17:34:45.096609	-8.052165E-1	1.319332E-2	2.664372E-2	-1.013887E+1	6.928941E-3	2.455003E-2	8.477112E-2	2.401527E-2
10/19/2017  17:34:45.097609	4.019495E+0	8.105642E-3	1.900811E-2	-1.013378E+1	2.477858E-2	9.286120E-3	6.951371E-2	3.927877E-2
								
10/19/2017  17:34:45.098609	3.185720E+0	1.064948E-2	1.646291E-2	-1.013378E+1	2.222863E-2	2.455003E-2	7.968532E-2	3.164702E-2
10/19/2017  17:34:45.099609	-5.738947E-1	1.828100E-2	2.155331E-2	-1.013123E+1	2.222863E-2	2.963800E-2	7.459952E-2	2.910311E-2
10/19/2017  17:34:45.100609	-3.196949E-1	1.573716E-2	2.409852E-2	-1.013887E+1	1.457878E-2	1.437409E-2	8.731403E-2	2.910311E-2
10/19/2017  17:34:45.101609	6.437222E-1	8.105642E-3	6.282096E-3	-1.013632E+1	2.987847E-2	1.437409E-2	6.697081E-2	3.673486E-2
10/19/2017  17:34:45.102609	1.004686E+0	2.082484E-2	1.137250E-2	-1.014142E+1	2.732853E-2	2.455003E-2	6.951371E-2	4.182269E-2
10/19/2017  17:34:45.103609	8.064101E-1	2.082484E-2	1.900811E-2	-1.011850E+1	2.477858E-2	2.709402E-2	7.714242E-2	2.147136E-2
10/19/2017  17:34:45.104609	3.020490E+0	2.082484E-2	1.900811E-2	-1.013378E+1	1.712873E-2	1.946206E-2	7.968532E-2	3.164702E-2
10/19/2017  17:34:45.105609	1.116534E+0	8.105642E-3	1.900811E-2	-1.014396E+1	2.477858E-2	4.198150E-3	7.459952E-2	3.419094E-2
10/19/2017  17:34:45.106609	-2.884571E+0	1.319332E-2	1.900811E-2	-1.014396E+1	2.987847E-2	2.200605E-2	6.951371E-2	3.673486E-2
10/19/2017  17:34:45.107609	-2.094009E+0	2.082484E-2	1.900811E-2	-1.014905E+1	1.712873E-2	3.726996E-2	7.968532E-2	2.147136E-2
10/19/2017  17:34:45.108609	-1.056874E+0	5.561801E-3	2.155331E-2	-1.014651E+1	2.477858E-2	1.946206E-2	7.459952E-2	2.910311E-2
10/19/2017  17:34:45.109609	-2.597325E+0	8.105642E-3	1.646291E-2	-1.014651E+1	2.477858E-2	1.946206E-2	7.205661E-2	3.164702E-2
10/19/2017  17:34:45.110609	-3.400596E+0	2.336868E-2	1.391770E-2	-1.013632E+1	2.222863E-2	2.455003E-2	7.205661E-2	3.164702E-2
10/19/2017  17:34:45.111609	-2.663417E+0	1.319332E-2	1.391770E-2	-1.014142E+1	2.477858E-2	2.455003E-2	6.951371E-2	2.655919E-2
10/19/2017  17:34:45.112609	-5.255967E-1	2.082484E-2	8.827299E-3	-1.014396E+1	9.478889E-3	1.946206E-2	8.222822E-2	2.147136E-2
10/19/2017  17:34:45.113609	4.632404E-1	1.319332E-2	2.409852E-2	-1.012105E+1	1.967868E-2	1.437409E-2	7.968532E-2	3.927877E-2
10/19/2017  17:34:45.114609	7.301501E-1	5.561801E-3	2.155331E-2	-1.013123E+1	2.222863E-2	3.472597E-2	7.459952E-2	3.419094E-2
10/19/2017  17:34:45.115609	1.256344E+0	8.105642E-3	1.137250E-2	-1.012869E+1	2.477858E-2	1.946206E-2	6.951371E-2	2.910311E-2
10/19/2017  17:34:45.116609	1.124447E-1	2.082484E-2	1.900811E-2	-1.014142E+1	2.222863E-2	1.691808E-2	7.459952E-2	1.638352E-2
10/19/2017  17:34:45.117609	2.407869E+0	2.082484E-2	1.900811E-2	-1.013632E+1	1.457878E-2	2.455003E-2	6.951371E-2	3.419094E-2
10/19/2017  17:34:45.118609	3.859349E+0	1.319332E-2	1.900811E-2	-1.013632E+1	1.967868E-2	2.455003E-2	7.205661E-2	3.927877E-2
10/19/2017  17:34:45.119609	-4.486029E+0	3.017961E-3	1.900811E-2	-1.014396E+1	2.732853E-2	2.200605E-2	7.968532E-2	2.910311E-2
10/19/2017  17:34:45.120609	-4.935963E+0	1.573716E-2	1.900811E-2	-1.014905E+1	3.242842E-2	3.218199E-2	6.951371E-2	2.910311E-2
10/19/2017  17:34:45.121609	-4.109814E+0	2.082484E-2	2.155331E-2	-1.014905E+1	1.967868E-2	2.963800E-2	7.205661E-2	2.655919E-2
10/19/2017  17:34:45.122609	-3.611582E+0	1.319332E-2	3.173413E-2	-1.014142E+1	1.712873E-2	1.437409E-2	7.714242E-2	3.673486E-2
10/19/2017  17:34:45.123609	1.861626E-1	5.561801E-3	1.391770E-2	-1.013123E+1	1.967868E-2	1.437409E-2	7.205661E-2	2.655919E-2
10/19/2017  17:34:45.124609	5.003248E+0	2.082484E-2	6.282096E-3	-1.013887E+1	2.987847E-2	1.437409E-2	7.205661E-2	2.401527E-2
10/19/2017  17:34:45.125609	2.837466E+0	2.336868E-2	2.155331E-2	-1.013887E+1	2.477858E-2	2.963800E-2	7.459952E-2	3.927877E-2
10/19/2017  17:34:45.126609	2.265517E+0	1.064948E-2	1.900811E-2	-1.012869E+1	2.477858E-2	1.691808E-2	8.222822E-2	2.910311E-2
10/19/2017  17:34:45.127609	3.696661E+0	8.105642E-3	1.391770E-2	-1.013632E+1	2.222863E-2	1.946206E-2	7.459952E-2	2.655919E-2
10/19/2017  17:34:45.128609	2.481587E+0	1.064948E-2	1.900811E-2	-1.011596E+1	2.222863E-2	2.455003E-2	7.714242E-2	3.164702E-2
10/19/2017  17:34:45.129609	2.745954E+0	1.319332E-2	1.137250E-2	-1.013632E+1	2.477858E-2	2.455003E-2	7.205661E-2	2.655919E-2
10/19/2017  17:34:45.130609	2.245181E+0	1.064948E-2	1.900811E-2	-1.015669E+1	1.967868E-2	1.946206E-2	7.459952E-2	3.164702E-2
								
10/19/2017  17:34:45.131609	2.146043E+0	1.064948E-2	2.409852E-2	-1.013632E+1	2.222863E-2	1.691808E-2	7.205661E-2	2.655919E-2
10/19/2017  17:34:45.132609	1.065694E+0	1.064948E-2	1.900811E-2	-1.013123E+1	2.477858E-2	1.691808E-2	7.714242E-2	3.673486E-2
10/19/2017  17:34:45.133609	1.589345E+0	2.591253E-2	2.409852E-2	-1.013887E+1	3.752832E-2	2.455003E-2	6.697081E-2	3.164702E-2
10/19/2017  17:34:45.134609	-1.163351E-1	1.064948E-2	1.137250E-2	-1.014651E+1	2.732853E-2	2.709402E-2	6.442791E-2	2.655919E-2
10/19/2017  17:34:45.135609	-2.543943E+0	2.082484E-2	2.155331E-2	-1.014396E+1	1.457878E-2	1.946206E-2	8.222822E-2	2.147136E-2
10/19/2017  17:34:45.136609	-4.162908E-1	1.828100E-2	2.664372E-2	-1.013632E+1	1.967868E-2	2.200605E-2	8.477112E-2	3.164702E-2
10/19/2017  17:34:45.137609	3.793544E-1	1.319332E-2	1.646291E-2	-1.014142E+1	2.477858E-2	9.286120E-3	7.714242E-2	4.182269E-2
10/19/2017  17:34:45.138609	2.626480E+0	8.105642E-3	1.900811E-2	-1.013887E+1	1.712873E-2	1.946206E-2	7.459952E-2	3.673486E-2
10/19/2017  17:34:45.139609	1.383444E+0	1.064948E-2	1.137250E-2	-1.013123E+1	2.987847E-2	4.490191E-2	6.951371E-2	2.655919E-2
10/19/2017  17:34:45.140609	-1.908443E+0	3.863173E-2	1.900811E-2	-1.014142E+1	3.242842E-2	2.963800E-2	8.222822E-2	2.655919E-2
10/19/2017  17:34:45.141609	-2.859151E+0	1.319332E-2	2.409852E-2	-1.014905E+1	1.457878E-2	1.946206E-2	7.968532E-2	3.164702E-2
10/19/2017  17:34:45.142609	-1.633908E+0	4.741205E-4	1.900811E-2	-1.014142E+1	1.202884E-2	2.200605E-2	7.205661E-2	3.419094E-2
10/19/2017  17:34:45.143609	-2.030459E+0	1.064948E-2	1.646291E-2	-1.014396E+1	2.477858E-2	2.200605E-2	7.205661E-2	3.164702E-2
10/19/2017  17:34:45.144609	-1.832184E+0	1.828100E-2	1.391770E-2	-1.014651E+1	3.752832E-2	2.963800E-2	7.205661E-2	2.147136E-2
10/19/2017  17:34:45.145609	-2.876945E+0	2.082484E-2	2.155331E-2	-1.015415E+1	2.222863E-2	2.709402E-2	8.222822E-2	2.655919E-2
10/19/2017  17:34:45.146609	-2.228735E+0	1.064948E-2	1.646291E-2	-1.013887E+1	3.752832E-2	2.200605E-2	6.951371E-2	2.655919E-2
10/19/2017  17:34:45.147609	-9.755303E-1	8.105642E-3	1.900811E-2	-1.013378E+1	1.712873E-2	1.437409E-2	7.968532E-2	3.673486E-2
10/19/2017  17:34:45.148609	-3.603669E-1	1.573716E-2	1.137250E-2	-1.013887E+1	2.477858E-2	2.200605E-2	7.968532E-2	4.691052E-2
10/19/2017  17:34:45.149609	1.309726E+0	1.064948E-2	2.664372E-2	-1.013887E+1	2.477858E-2	1.437409E-2	7.205661E-2	3.164702E-2
10/19/2017  17:34:45.150609	4.995622E+0	8.105642E-3	2.155331E-2	-1.013378E+1	1.457878E-2	1.946206E-2	8.222822E-2	2.147136E-2
10/19/2017  17:34:45.151609	4.998164E+0	1.064948E-2	1.646291E-2	-1.013632E+1	2.477858E-2	1.183011E-2	7.205661E-2	3.673486E-2
10/19/2017  17:34:45.152609	-4.900088E-1	1.573716E-2	1.137250E-2	-1.014142E+1	2.987847E-2	1.946206E-2	6.951371E-2	3.164702E-2
10/19/2017  17:34:45.153609	-2.815650E-1	1.828100E-2	1.900811E-2	-1.014142E+1	1.967868E-2	2.963800E-2	6.697081E-2	3.164702E-2
10/19/2017  17:34:45.154609	-1.585610E+0	5.561801E-3	2.409852E-2	-1.014651E+1	2.222863E-2	2.709402E-2	7.459952E-2	3.164702E-2
10/19/2017  17:34:45.155609	-4.058974E+0	1.319332E-2	1.137250E-2	-1.013632E+1	2.477858E-2	1.691808E-2	7.205661E-2	3.673486E-2
10/19/2017  17:34:45.156609	-2.233819E+0	2.082484E-2	2.664372E-2	-1.014905E+1	3.752832E-2	1.946206E-2	6.951371E-2	2.147136E-2
10/19/2017  17:34:45.157609	1.098740E+0	1.319332E-2	2.664372E-2	-1.014396E+1	1.967868E-2	2.963800E-2	7.205661E-2	3.164702E-2
10/19/2017  17:34:45.158609	1.764743E+0	1.064948E-2	1.137250E-2	-1.013378E+1	2.477858E-2	1.183011E-2	7.714242E-2	4.182269E-2
10/19/2017  17:34:45.159609	-1.537312E+0	1.573716E-2	1.900811E-2	-1.013123E+1	2.222863E-2	2.455003E-2	7.714242E-2	2.910311E-2
10/19/2017  17:34:45.160609	-1.636450E+0	1.319332E-2	1.137250E-2	-1.013887E+1	3.242842E-2	3.218199E-2	7.205661E-2	3.673486E-2
10/19/2017  17:34:45.161609	4.324535E+0	1.828100E-2	1.900811E-2	-1.013632E+1	2.222863E-2	2.963800E-2	7.205661E-2	3.164702E-2
10/19/2017  17:34:45.162609	4.944782E+0	1.319332E-2	1.900811E-2	-1.013378E+1	1.712873E-2	3.472597E-2	7.714242E-2	2.655919E-2
10/19/2017  17:34:45.163609	-1.572900E+0	1.828100E-2	1.900811E-2	-1.012105E+1	1.967868E-2	1.437409E-2	7.968532E-2	3.673486E-2
								
10/19/2017  17:34:45.164609	-2.734593E+0	1.573716E-2	1.137250E-2	-1.014651E+1	2.732853E-2	1.691808E-2	6.951371E-2	3.927877E-2
10/19/2017  17:34:45.165609	-8.763924E-1	5.561801E-3	1.900811E-2	-1.015160E+1	1.202884E-2	2.200605E-2	6.951371E-2	3.927877E-2
10/19/2017  17:34:45.166609	-4.086648E-1	1.319332E-2	2.409852E-2	-1.013632E+1	2.222863E-2	2.455003E-2	8.731403E-2	3.164702E-2
10/19/2017  17:34:45.167609	-6.298186E-1	8.105642E-3	1.646291E-2	-1.012359E+1	3.497837E-2	1.691808E-2	7.968532E-2	2.910311E-2
10/19/2017  17:34:45.168609	-2.586870E-1	1.319332E-2	1.137250E-2	-1.014142E+1	2.987847E-2	1.946206E-2	6.697081E-2	3.164702E-2
10/19/2017  17:34:45.169609	-1.766092E+0	1.573716E-2	1.646291E-2	-1.015160E+1	1.457878E-2	2.709402E-2	6.951371E-2	3.673486E-2
10/19/2017  17:34:45.170609	-2.439721E+0	1.064948E-2	2.664372E-2	-1.013887E+1	1.457878E-2	2.455003E-2	8.222822E-2	3.164702E-2
10/19/2017  17:34:45.171609	-3.230282E+0	5.561801E-3	1.646291E-2	-1.013632E+1	2.222863E-2	2.200605E-2	7.459952E-2	3.164702E-2
10/19/2017  17:34:45.172609	-2.803227E+0	1.319332E-2	6.282096E-3	-1.015415E+1	2.732853E-2	1.691808E-2	6.697081E-2	3.164702E-2
10/19/2017  17:34:45.173609	-1.974535E+0	1.828100E-2	2.155331E-2	-1.014396E+1	2.222863E-2	3.472597E-2	7.459952E-2	2.147136E-2
10/19/2017  17:34:45.174609	2.377365E+0	1.573716E-2	2.409852E-2	-1.011596E+1	1.712873E-2	2.709402E-2	8.731403E-2	3.927877E-2
10/19/2017  17:34:45.175609	3.345866E+0	1.319332E-2	1.900811E-2	-1.012869E+1	2.222863E-2	1.691808E-2	7.459952E-2	3.673486E-2
10/19/2017  17:34:45.176609	3.012864E+0	1.064948E-2	1.137250E-2	-1.013378E+1	2.987847E-2	1.183011E-2	5.934210E-2	3.164702E-2
10/19/2017  17:34:45.177609	2.074867E+0	1.064948E-2	1.646291E-2	-1.014396E+1	1.967868E-2	2.709402E-2	7.459952E-2	2.401527E-2
10/19/2017  17:34:45.178609	1.531166E-1	1.064948E-2	2.409852E-2	-1.013123E+1	1.457878E-2	1.946206E-2	8.985693E-2	3.164702E-2
10/19/2017  17:34:45.179609	2.044363E+0	8.105642E-3	1.137250E-2	-1.013632E+1	2.732853E-2	6.742135E-3	7.459952E-2	3.927877E-2
10/19/2017  17:34:45.180609	1.952851E+0	1.064948E-2	1.137250E-2	-1.014651E+1	2.477858E-2	1.946206E-2	6.188501E-2	3.164702E-2
10/19/2017  17:34:45.181609	-4.519075E+0	2.082484E-2	1.391770E-2	-1.014651E+1	1.457878E-2	2.963800E-2	7.459952E-2	2.401527E-2
10/19/2017  17:34:45.182609	-4.943589E+0	2.082484E-2	2.409852E-2	-1.014396E+1	1.712873E-2	1.946206E-2	7.968532E-2	2.910311E-2
10/19/2017  17:34:45.183609	2.093276E-2	8.105642E-3	2.409852E-2	-1.013887E+1	1.457878E-2	1.183011E-2	7.714242E-2	3.419094E-2
10/19/2017  17:34:45.184609	1.375818E+0	5.561801E-3	1.900811E-2	-1.013887E+1	1.967868E-2	2.200605E-2	7.205661E-2	2.910311E-2
10/19/2017  17:34:45.185609	2.786626E+0	1.064948E-2	2.155331E-2	-1.013632E+1	1.967868E-2	6.742135E-3	7.714242E-2	2.401527E-2
10/19/2017  17:34:45.186609	1.464787E+0	3.354405E-2	1.900811E-2	-1.014396E+1	1.457878E-2	2.455003E-2	8.222822E-2	2.655919E-2
10/19/2017  17:34:45.187609	-5.433907E-1	1.064948E-2	2.664372E-2	-1.013887E+1	2.222863E-2	1.946206E-2	7.714242E-2	3.419094E-2
10/19/2017  17:34:45.188609	-1.588152E+0	-9.701241E-3	1.900811E-2	-1.013632E+1	1.457878E-2	1.691808E-2	6.951371E-2	3.927877E-2
10/19/2017  17:34:45.189609	-9.145224E-1	1.319332E-2	1.137250E-2	-1.013887E+1	2.732853E-2	1.946206E-2	7.205661E-2	3.164702E-2
10/19/2017  17:34:45.190609	1.785366E-1	2.082484E-2	1.646291E-2	-1.013887E+1	3.497837E-2	2.963800E-2	7.714242E-2	2.910311E-2
10/19/2017  17:34:45.191609	1.993523E+0	1.064948E-2	2.155331E-2	-1.014142E+1	2.222863E-2	1.946206E-2	7.714242E-2	3.164702E-2
10/19/2017  17:34:45.192609	2.283311E+0	8.105642E-3	2.155331E-2	-1.013632E+1	1.202884E-2	2.200605E-2	7.205661E-2	3.673486E-2
10/19/2017  17:34:45.193609	2.085035E+0	1.064948E-2	1.900811E-2	-1.013887E+1	2.987847E-2	1.691808E-2	6.951371E-2	3.927877E-2
10/19/2017  17:34:45.194609	2.598805E-1	1.573716E-2	1.391770E-2	-1.013887E+1	3.242842E-2	1.691808E-2	7.714242E-2	3.419094E-2
10/19/2017  17:34:45.195609	-2.968170E-1	1.828100E-2	1.646291E-2	-1.016178E+1	1.967868E-2	2.455003E-2	7.459952E-2	2.401527E-2
10/19/2017  17:34:45.196609	6.793102E-1	1.064948E-2	2.664372E-2	-1.015160E+1	1.457878E-2	2.709402E-2	7.968532E-2	4.182269E-2
								
10/19/2017  17:34:45.197609	1.012312E+0	5.561801E-3	2.918892E-2	-1.011596E+1	1.457878E-2	1.946206E-2	8.731403E-2	3.673486E-2
10/19/2017  17:34:45.198609	1.632846E-1	1.573716E-2	6.282096E-3	-1.013632E+1	2.477858E-2	1.691808E-2	7.459952E-2	3.164702E-2
10/19/2017  17:34:45.199609	-4.290295E+0	1.319332E-2	8.827299E-3	-1.014905E+1	2.477858E-2	1.691808E-2	6.188501E-2	2.910311E-2
10/19/2017  17:34:45.200609	-4.208951E+0	1.064948E-2	1.391770E-2	-1.015160E+1	1.712873E-2	2.709402E-2	7.459952E-2	2.910311E-2
10/19/2017  17:34:45.201609	-3.065052E+0	1.828100E-2	2.664372E-2	-1.015160E+1	1.712873E-2	2.200605E-2	9.239983E-2	3.164702E-2
10/19/2017  17:34:45.202609	4.975286E+0	1.828100E-2	2.664372E-2	-1.012105E+1	2.477858E-2	1.691808E-2	7.459952E-2	3.673486E-2
10/19/2017  17:34:45.203609	-1.847436E+0	1.064948E-2	1.391770E-2	-1.013632E+1	2.732853E-2	2.200605E-2	6.188501E-2	3.419094E-2
10/19/2017  17:34:45.204609	5.018500E+0	2.082484E-2	2.155331E-2	-1.013632E+1	1.712873E-2	2.455003E-2	7.714242E-2	3.419094E-2
10/19/2017  17:34:45.205609	5.003248E+0	2.082484E-2	2.409852E-2	-1.012869E+1	1.967868E-2	1.946206E-2	8.222822E-2	3.164702E-2
10/19/2017  17:34:45.206609	-1.794054E+0	1.319332E-2	2.155331E-2	-1.014651E+1	2.222863E-2	2.963800E-2	6.951371E-2	4.436661E-2
10/19/2017  17:34:45.207609	-4.775817E+0	5.561801E-3	1.137250E-2	-1.015924E+1	2.222863E-2	2.963800E-2	6.697081E-2	2.655919E-2
10/19/2017  17:34:45.208609	-4.191157E+0	1.828100E-2	1.900811E-2	-1.015924E+1	2.477858E-2	1.691808E-2	7.459952E-2	3.164702E-2
10/19/2017  17:34:45.209609	1.175000E+0	1.828100E-2	1.646291E-2	-1.013887E+1	1.967868E-2	1.946206E-2	7.968532E-2	3.419094E-2
10/19/2017  17:34:45.210609	5.003248E+0	3.017961E-3	1.900811E-2	-1.012105E+1	2.477858E-2	1.946206E-2	7.205661E-2	2.401527E-2
10/19/2017  17:34:45.211609	3.866975E+0	4.741205E-4	1.137250E-2	-1.012614E+1	2.222863E-2	2.200605E-2	6.442791E-2	2.910311E-2
10/19/2017  17:34:45.212609	-2.230990E-1	2.082484E-2	1.646291E-2	-1.013887E+1	1.967868E-2	2.709402E-2	7.205661E-2	2.655919E-2
10/19/2017  17:34:45.213609	2.224845E+0	1.319332E-2	2.155331E-2	-1.013887E+1	3.497837E-2	1.946206E-2	8.477112E-2	3.673486E-2
10/19/2017  17:34:45.214609	5.010874E+0	8.105642E-3	2.155331E-2	-1.012869E+1	1.967868E-2	1.691808E-2	7.205661E-2	2.910311E-2
10/19/2017  17:34:45.215609	5.013416E+0	8.105642E-3	1.391770E-2	-1.012105E+1	1.712873E-2	2.200605E-2	6.442791E-2	2.401527E-2
10/19/2017  17:34:45.216609	1.757117E+0	2.082484E-2	6.282096E-3	-1.013632E+1	2.222863E-2	2.963800E-2	7.968532E-2	2.401527E-2
10/19/2017  17:34:45.217609	-4.862245E+0	1.828100E-2	2.664372E-2	-1.014905E+1	1.457878E-2	2.200605E-2	7.968532E-2	4.691052E-2
10/19/2017  17:34:45.218609	-4.946131E+0	5.561801E-3	2.918892E-2	-1.013887E+1	1.712873E-2	1.183011E-2	6.951371E-2	3.419094E-2
10/19/2017  17:34:45.219609	-4.918169E+0	1.064948E-2	1.391770E-2	-1.015415E+1	2.222863E-2	1.691808E-2	7.205661E-2	2.401527E-2
10/19/2017  17:34:45.220609	-2.195689E+0	1.828100E-2	1.391770E-2	-1.013123E+1	1.967868E-2	2.709402E-2	7.968532E-2	2.401527E-2
10/19/2017  17:34:45.221609	-1.089920E+0	1.828100E-2	1.900811E-2	-1.014651E+1	1.457878E-2	2.963800E-2	7.459952E-2	3.164702E-2
10/19/2017  17:34:45.222609	-1.925950E-1	5.561801E-3	2.918892E-2	-1.014651E+1	1.457878E-2	1.437409E-2	8.222822E-2	3.927877E-2
10/19/2017  17:34:45.223609	6.818522E-1	1.064948E-2	1.391770E-2	-1.013123E+1	2.477858E-2	9.286120E-3	6.951371E-2	2.910311E-2
10/19/2017  17:34:45.224609	6.208442E-1	2.336868E-2	1.900811E-2	-1.013632E+1	2.222863E-2	2.709402E-2	8.731403E-2	2.401527E-2
10/19/2017  17:34:45.225609	-1.379708E+0	1.828100E-2	3.173413E-2	-1.014651E+1	2.222863E-2	2.200605E-2	7.968532E-2	2.910311E-2
10/19/2017  17:34:45.226609	-2.808311E+0	5.561801E-3	1.646291E-2	-1.013887E+1	2.222863E-2	1.437409E-2	7.968532E-2	3.419094E-2
10/19/2017  17:34:45.227609	-2.302453E+0	1.064948E-2	1.191689E-3	-1.014396E+1	2.222863E-2	3.218199E-2	6.951371E-2	2.910311E-2
10/19/2017  17:34:45.228609	-2.050795E+0	2.591253E-2	1.900811E-2	-1.014396E+1	1.457878E-2	2.963800E-2	7.205661E-2	2.147136E-2
10/19/2017  17:34:45.229609	-9.170644E-1	1.064948E-2	2.409852E-2	-1.014396E+1	2.222863E-2	1.183011E-2	7.714242E-2	3.164702E-2
								
10/19/2017  17:34:45.230609	-8.560564E-1	-2.069720E-3	2.155331E-2	-1.013123E+1	1.457878E-2	1.946206E-2	7.459952E-2	3.419094E-2
10/19/2017  17:34:45.231609	-5.637267E-1	1.573716E-2	1.137250E-2	-1.013887E+1	2.987847E-2	1.691808E-2	7.459952E-2	2.401527E-2
10/19/2017  17:34:45.232609	-3.273209E-1	3.863173E-2	2.155331E-2	-1.013123E+1	2.477858E-2	2.709402E-2	7.714242E-2	2.655919E-2
10/19/2017  17:34:45.233609	4.627033E+0	1.573716E-2	2.664372E-2	-1.013123E+1	1.712873E-2	2.455003E-2	7.968532E-2	3.164702E-2
10/19/2017  17:34:45.234609	4.716003E+0	-7.157401E-3	2.409852E-2	-1.013887E+1	1.967868E-2	1.437409E-2	8.222822E-2	3.164702E-2
10/19/2017  17:34:45.235609	1.225840E+0	1.064948E-2	1.391770E-2	-1.012869E+1	2.477858E-2	2.455003E-2	7.205661E-2	3.419094E-2
10/19/2017  17:34:45.236609	1.861339E+0	1.319332E-2	1.900811E-2	-1.013123E+1	4.517816E-2	2.709402E-2	6.951371E-2	2.147136E-2
10/19/2017  17:34:45.237609	2.954685E-1	1.828100E-2	2.409852E-2	-1.014905E+1	1.712873E-2	3.218199E-2	6.951371E-2	2.147136E-2
10/19/2017  17:34:45.238609	-1.021286E+0	8.105642E-3	2.664372E-2	-1.013632E+1	4.378993E-3	1.946206E-2	8.222822E-2	3.927877E-2
10/19/2017  17:34:45.239609	2.273143E+0	1.064948E-2	1.646291E-2	-1.013632E+1	2.987847E-2	1.183011E-2	7.459952E-2	3.673486E-2
10/19/2017  17:34:45.240609	5.023584E+0	1.828100E-2	1.137250E-2	-1.013123E+1	2.987847E-2	1.946206E-2	6.697081E-2	4.436661E-2
10/19/2017  17:34:45.241609	-1.422922E+0	2.082484E-2	1.900811E-2	-1.011850E+1	1.457878E-2	2.963800E-2	7.968532E-2	2.655919E-2
10/19/2017  17:34:45.242609	4.403624E-1	8.105642E-3	2.155331E-2	-1.013632E+1	1.457878E-2	1.946206E-2	7.968532E-2	2.147136E-2
10/19/2017  17:34:45.243609	-4.076768E+0	1.064948E-2	1.900811E-2	-1.012869E+1	2.477858E-2	1.183011E-2	7.205661E-2	3.673486E-2
10/19/2017  17:34:45.244609	-4.892749E+0	1.828100E-2	1.646291E-2	-1.014651E+1	2.987847E-2	1.946206E-2	6.697081E-2	3.164702E-2
10/19/2017  17:34:45.245609	-7.721705E-1	1.828100E-2	2.155331E-2	-1.015924E+1	2.477858E-2	2.963800E-2	6.951371E-2	2.910311E-2
10/19/2017  17:34:45.246609	1.129244E+0	4.741205E-4	2.918892E-2	-1.013632E+1	1.457878E-2	2.455003E-2	8.222822E-2	3.164702E-2
10/19/2017  17:34:45.247609	1.052984E+0	1.064948E-2	1.646291E-2	-1.012614E+1	1.967868E-2	1.946206E-2	8.985693E-2	3.673486E-2
10/19/2017  17:34:45.248609	-9.831563E-1	1.319332E-2	1.137250E-2	-1.013887E+1	3.497837E-2	1.946206E-2	6.951371E-2	3.164702E-2
10/19/2017  17:34:45.249609	-8.153845E-1	1.319332E-2	2.155331E-2	-1.014905E+1	1.712873E-2	2.963800E-2	7.205661E-2	2.401527E-2
10/19/2017  17:34:45.250609	-6.476126E-1	1.064948E-2	1.137250E-2	-1.014142E+1	9.478889E-3	1.946206E-2	8.222822E-2	3.927877E-2
10/19/2017  17:34:45.251609	1.480326E-1	1.064948E-2	1.137250E-2	-1.013632E+1	3.242842E-2	1.691808E-2	6.951371E-2	3.673486E-2
10/19/2017  17:34:45.252609	1.284306E+0	1.319332E-2	1.646291E-2	-1.013632E+1	2.477858E-2	3.472597E-2	7.205661E-2	2.401527E-2
10/19/2017  17:34:45.253609	6.462642E-1	1.064948E-2	1.900811E-2	-1.014142E+1	1.712873E-2	1.946206E-2	7.205661E-2	3.419094E-2
10/19/2017  17:34:45.254609	1.226127E-1	1.064948E-2	1.900811E-2	-1.013887E+1	2.477858E-2	1.183011E-2	7.459952E-2	3.673486E-2
10/19/2017  17:34:45.255609	-8.814764E-1	2.336868E-2	1.137250E-2	-1.013123E+1	3.242842E-2	2.455003E-2	6.951371E-2	2.910311E-2
10/19/2017  17:34:45.256609	-1.814390E+0	1.828100E-2	1.900811E-2	-1.014651E+1	1.967868E-2	2.455003E-2	7.459952E-2	2.910311E-2
10/19/2017  17:34:45.257609	-3.662422E+0	4.741205E-4	1.900811E-2	-1.015415E+1	4.378993E-3	1.946206E-2	7.714242E-2	2.655919E-2
10/19/2017  17:34:45.258609	-4.211493E+0	5.561801E-3	1.900811E-2	-1.013632E+1	2.222863E-2	1.946206E-2	7.714242E-2	3.927877E-2
10/19/2017  17:34:45.259609	-3.248076E+0	1.319332E-2	1.137250E-2	-1.013887E+1	4.517816E-2	1.946206E-2	7.714242E-2	3.673486E-2
10/19/2017  17:34:45.260609	-5.637267E-1	1.573716E-2	1.900811E-2	-1.014396E+1	2.222863E-2	2.709402E-2	7.205661E-2	2.910311E-2
10/19/2017  17:34:45.261609	9.182580E-1	1.064948E-2	2.409852E-2	-1.013632E+1	6.928941E-3	2.200605E-2	7.205661E-2	2.655919E-2
10/19/2017  17:34:45.262609	3.340782E+0	8.105642E-3	1.646291E-2	-1.011850E+1	2.222863E-2	1.946206E-2	7.459952E-2	3.673486E-2
								
10/19/2017  17:34:45.263609	5.003248E+0	1.573716E-2	1.646291E-2	-1.013378E+1	3.242842E-2	1.946206E-2	7.205661E-2	3.419094E-2
10/19/2017  17:34:45.264609	2.603602E+0	1.828100E-2	2.409852E-2	-1.013887E+1	2.477858E-2	2.963800E-2	6.951371E-2	2.401527E-2
10/19/2017  17:34:45.265609	8.318300E-1	1.064948E-2	2.409852E-2	-1.013887E+1	1.457878E-2	2.709402E-2	8.222822E-2	1.892744E-2
10/19/2017  17:34:45.266609	1.073320E+0	8.105642E-3	1.900811E-2	-1.013123E+1	2.477858E-2	1.691808E-2	7.714242E-2	3.927877E-2
10/19/2017  17:34:45.267609	-2.116887E+0	2.082484E-2	1.391770E-2	-1.014142E+1	2.987847E-2	2.455003E-2	6.951371E-2	3.419094E-2
10/19/2017  17:34:45.268609	-4.951215E+0	1.573716E-2	1.900811E-2	-1.015924E+1	2.222863E-2	2.963800E-2	7.205661E-2	2.147136E-2
10/19/2017  17:34:45.269609	-4.920711E+0	5.561801E-3	1.900811E-2	-1.015415E+1	1.202884E-2	2.200605E-2	8.222822E-2	3.164702E-2
10/19/2017  17:34:45.270609	9.360519E-1	1.064948E-2	2.155331E-2	-1.013887E+1	2.477858E-2	1.946206E-2	8.731403E-2	3.164702E-2
10/19/2017  17:34:45.271609	1.703735E+0	1.064948E-2	6.282096E-3	-1.013887E+1	2.732853E-2	2.455003E-2	7.459952E-2	3.164702E-2
10/19/2017  17:34:45.272609	-3.387886E+0	1.319332E-2	1.900811E-2	-1.013887E+1	1.712873E-2	1.946206E-2	7.205661E-2	3.164702E-2
10/19/2017  17:34:45.273609	-9.628203E-1	1.573716E-2	2.664372E-2	-1.014396E+1	2.222863E-2	9.286120E-3	7.459952E-2	3.673486E-2
10/19/2017  17:34:45.274609	4.987996E+0	1.573716E-2	1.900811E-2	-1.013123E+1	2.732853E-2	1.691808E-2	7.459952E-2	3.164702E-2
10/19/2017  17:34:45.275609	1.022480E+0	1.573716E-2	1.391770E-2	-1.013378E+1	3.242842E-2	2.963800E-2	7.459952E-2	2.655919E-2
10/19/2017  17:34:45.276609	-1.097546E+0	4.741205E-4	2.409852E-2	-1.013632E+1	9.478889E-3	1.946206E-2	7.968532E-2	2.910311E-2
10/19/2017  17:34:45.277609	1.929973E+0	8.105642E-3	1.900811E-2	-1.013123E+1	2.222863E-2	9.286120E-3	7.459952E-2	3.164702E-2
10/19/2017  17:34:45.278609	3.475508E+0	1.319332E-2	1.137250E-2	-1.012869E+1	3.497837E-2	1.946206E-2	7.205661E-2	2.147136E-2
10/19/2017  17:34:45.279609	2.064699E+0	2.082484E-2	2.155331E-2	-1.014142E+1	2.222863E-2	2.709402E-2	7.968532E-2	2.401527E-2
10/19/2017  17:34:45.280609	-3.100640E+0	-7.157401E-3	2.664372E-2	-1.014651E+1	9.478889E-3	1.946206E-2	7.714242E-2	3.419094E-2
10/19/2017  17:34:45.281609	-7.492925E-1	8.105642E-3	1.900811E-2	-1.014142E+1	2.222863E-2	1.437409E-2	7.459952E-2	3.673486E-2
10/19/2017  17:34:45.282609	3.910189E+0	1.319332E-2	1.137250E-2	-1.013378E+1	4.262821E-2	1.946206E-2	7.714242E-2	3.164702E-2
10/19/2017  17:34:45.283609	2.982360E+0	1.064948E-2	1.646291E-2	-1.014396E+1	2.222863E-2	2.709402E-2	7.205661E-2	2.401527E-2
10/19/2017  17:34:45.284609	-6.549516E-2	1.064948E-2	1.646291E-2	-1.012869E+1	2.222863E-2	2.455003E-2	7.459952E-2	2.655919E-2
10/19/2017  17:34:45.285609	-9.571210E-3	1.319332E-2	1.900811E-2	-1.015160E+1	2.222863E-2	2.455003E-2	7.459952E-2	2.910311E-2
10/19/2017  17:34:45.286609	5.089963E-1	1.064948E-2	1.137250E-2	-1.013632E+1	2.477858E-2	1.691808E-2	7.205661E-2	4.182269E-2
10/19/2017  17:34:45.287609	7.937001E-1	2.082484E-2	1.137250E-2	-1.015160E+1	2.987847E-2	1.946206E-2	6.697081E-2	3.419094E-2
10/19/2017  17:34:45.288609	-3.019009E-1	1.828100E-2	2.155331E-2	-1.014142E+1	2.222863E-2	2.963800E-2	7.714242E-2	3.419094E-2
10/19/2017  17:34:45.289609	-2.027917E+0	1.319332E-2	1.900811E-2	-1.011596E+1	2.477858E-2	2.709402E-2	7.968532E-2	3.164702E-2
10/19/2017  17:34:45.290609	-1.217020E+0	2.082484E-2	2.918892E-2	-1.013887E+1	2.477858E-2	1.946206E-2	7.968532E-2	3.673486E-2
10/19/2017  17:34:45.291609	2.093276E-2	3.017961E-3	1.646291E-2	-1.013632E+1	2.222863E-2	1.691808E-2	6.697081E-2	4.182269E-2
10/19/2017  17:34:45.292609	8.547080E-1	4.741205E-4	8.827299E-3	-1.013887E+1	2.732853E-2	1.946206E-2	6.697081E-2	3.164702E-2
10/19/2017  17:34:45.293609	1.180084E+0	2.082484E-2	1.391770E-2	-1.014142E+1	2.987847E-2	2.963800E-2	6.442791E-2	2.401527E-2
10/19/2017  17:34:45.294609	-9.882403E-1	2.591253E-2	1.646291E-2	-1.015160E+1	1.202884E-2	2.963800E-2	7.205661E-2	2.655919E-2
10/19/2017  17:34:45.295609	-4.038638E+0	1.064948E-2	2.155331E-2	-1.014905E+1	1.712873E-2	1.946206E-2	7.714242E-2	2.910311E-2
								
10/19/2017  17:34:45.296609	-5.942307E-1	8.105642E-3	3.427933E-2	-1.013123E+1	1.712873E-2	2.709402E-2	7.459952E-2	3.164702E-2
10/19/2017  17:34:45.297609	-1.183974E+0	1.319332E-2	1.137250E-2	-1.013887E+1	2.732853E-2	2.200605E-2	6.951371E-2	2.910311E-2
10/19/2017  17:34:45.298609	2.423121E+0	1.573716E-2	1.137250E-2	-1.014396E+1	3.497837E-2	1.946206E-2	6.951371E-2	2.401527E-2
10/19/2017  17:34:45.299609	4.815140E+0	8.105642E-3	2.409852E-2	-1.013887E+1	1.712873E-2	1.946206E-2	7.205661E-2	3.673486E-2
10/19/2017  17:34:45.300609	4.505304E-1	1.064948E-2	2.664372E-2	-1.013378E+1	2.477858E-2	1.691808E-2	8.222822E-2	3.164702E-2
10/19/2017  17:34:45.301609	-1.976790E-1	1.573716E-2	1.646291E-2	-1.012614E+1	2.987847E-2	1.946206E-2	8.222822E-2	2.910311E-2
10/19/2017  17:34:45.302609	-2.124513E+0	1.573716E-2	1.646291E-2	-1.014651E+1	2.477858E-2	1.946206E-2	6.951371E-2	1.892744E-2
10/19/2017  17:34:45.303609	-1.605946E+0	1.828100E-2	2.155331E-2	-1.016178E+1	2.477858E-2	2.709402E-2	6.951371E-2	3.419094E-2
10/19/2017  17:34:45.304609	2.265517E+0	1.319332E-2	2.409852E-2	-1.013632E+1	1.712873E-2	2.455003E-2	8.222822E-2	3.673486E-2
10/19/2017  17:34:45.305609	2.578182E+0	5.561801E-3	1.900811E-2	-1.011850E+1	1.457878E-2	1.691808E-2	7.205661E-2	3.419094E-2
10/19/2017  17:34:45.306609	-1.529686E+0	5.561801E-3	1.137250E-2	-1.013378E+1	2.987847E-2	1.183011E-2	6.951371E-2	3.164702E-2
10/19/2017  17:34:45.307609	-4.188328E-1	2.082484E-2	1.137250E-2	-1.014905E+1	1.457878E-2	2.709402E-2	6.188501E-2	3.164702E-2
10/19/2017  17:34:45.308609	1.630017E+0	2.082484E-2	2.155331E-2	-1.014142E+1	2.222863E-2	2.963800E-2	8.222822E-2	2.655919E-2
10/19/2017  17:34:45.309609	9.131740E-1	1.573716E-2	2.664372E-2	-1.013887E+1	1.457878E-2	1.946206E-2	8.731403E-2	2.655919E-2
10/19/2017  17:34:45.310609	1.154664E+0	8.105642E-3	1.137250E-2	-1.013378E+1	2.222863E-2	1.183011E-2	7.205661E-2	3.673486E-2
10/19/2017  17:34:45.311609	1.912179E+0	1.064948E-2	1.646291E-2	-1.013378E+1	2.732853E-2	2.709402E-2	7.205661E-2	3.164702E-2
10/19/2017  17:34:45.312609	-4.007518E-2	1.573716E-2	1.900811E-2	-1.013123E+1	2.222863E-2	2.963800E-2	7.205661E-2	2.655919E-2
10/19/2017  17:34:45.313609	-1.575442E+0	1.319332E-2	2.155331E-2	-1.013632E+1	1.202884E-2	1.946206E-2	7.968532E-2	1.892744E-2
10/19/2017  17:34:45.314609	-2.942750E-1	8.105642E-3	2.664372E-2	-1.014396E+1	1.457878E-2	6.742135E-3	7.205661E-2	3.673486E-2
10/19/2017  17:34:45.315609	2.954685E-1	-7.157401E-3	2.409852E-2	-1.012869E+1	2.732853E-2	1.691808E-2	6.951371E-2	3.419094E-2
10/19/2017  17:34:45.316609	-4.515918E-2	1.828100E-2	1.137250E-2	-1.014142E+1	2.987847E-2	2.963800E-2	7.459952E-2	2.401527E-2
10/19/2017  17:34:45.317609	-1.697171E-1	8.105642E-3	2.664372E-2	-1.013887E+1	2.732853E-2	2.709402E-2	7.968532E-2	2.655919E-2
10/19/2017  17:34:45.318609	4.126874E-2	5.561801E-3	2.664372E-2	-1.013123E+1	1.202884E-2	2.200605E-2	7.459952E-2	3.673486E-2
10/19/2017  17:34:45.319609	3.310565E-1	8.105642E-3	2.155331E-2	-1.012614E+1	2.222863E-2	1.946206E-2	7.459952E-2	3.164702E-2
10/19/2017  17:34:45.320609	4.126874E-2	1.064948E-2	1.137250E-2	-1.012869E+1	2.987847E-2	2.200605E-2	6.951371E-2	2.910311E-2
10/19/2017  17:34:45.321609	-1.135676E+0	2.082484E-2	8.827299E-3	-1.014651E+1	2.477858E-2	1.946206E-2	7.459952E-2	2.147136E-2
10/19/2017  17:34:45.322609	-2.010123E+0	1.828100E-2	2.664372E-2	-1.014905E+1	1.712873E-2	2.200605E-2	7.968532E-2	3.164702E-2
10/19/2017  17:34:45.323609	-3.057426E+0	8.105642E-3	1.900811E-2	-1.013378E+1	2.222863E-2	3.218199E-2	7.205661E-2	4.182269E-2
10/19/2017  17:34:45.324609	-2.686295E+0	2.845637E-2	1.391770E-2	-1.013632E+1	2.222863E-2	1.946206E-2	6.951371E-2	2.401527E-2
10/19/2017  17:34:45.325609	-1.252608E+0	1.828100E-2	1.391770E-2	-1.014905E+1	2.732853E-2	1.183011E-2	6.951371E-2	1.892744E-2
10/19/2017  17:34:45.326609	-2.106719E+0	1.828100E-2	1.646291E-2	-1.014651E+1	1.457878E-2	1.946206E-2	7.205661E-2	3.164702E-2
10/19/2017  17:34:45.327609	-2.937953E+0	1.064948E-2	1.900811E-2	-1.013887E+1	1.967868E-2	2.455003E-2	7.205661E-2	3.164702E-2
10/19/2017  17:34:45.328609	2.107913E+0	3.017961E-3	1.900811E-2	-1.012359E+1	2.222863E-2	2.455003E-2	7.459952E-2	3.419094E-2
								
10/19/2017  17:34:45.329609	5.005790E+0	1.064948E-2	2.155331E-2	-1.013378E+1	2.987847E-2	1.946206E-2	6.697081E-2	3.164702E-2
10/19/2017  17:34:45.330609	4.947324E+0	1.828100E-2	2.155331E-2	-1.012869E+1	2.987847E-2	3.218199E-2	6.951371E-2	3.164702E-2
10/19/2017  17:34:45.331609	7.685671E-2	1.319332E-2	3.173413E-2	-1.012614E+1	1.457878E-2	2.709402E-2	7.459952E-2	2.910311E-2
10/19/2017  17:34:45.332609	-2.038085E+0	5.561801E-3	1.646291E-2	-1.013632E+1	1.967868E-2	1.437409E-2	7.714242E-2	2.910311E-2
10/19/2017  17:34:45.333609	5.318743E-1	8.105642E-3	1.900811E-2	-1.015415E+1	2.222863E-2	1.691808E-2	7.205661E-2	3.164702E-2
10/19/2017  17:34:45.334609	1.197878E+0	8.105642E-3	2.409852E-2	-1.014142E+1	2.732853E-2	1.946206E-2	7.459952E-2	3.164702E-2
10/19/2017  17:34:45.335609	-8.001325E-1	1.828100E-2	1.646291E-2	-1.011850E+1	2.222863E-2	2.200605E-2	7.714242E-2	3.164702E-2
10/19/2017  17:34:45.336609	-1.145844E+0	1.319332E-2	2.155331E-2	-1.013887E+1	1.967868E-2	1.946206E-2	7.459952E-2	3.164702E-2
10/19/2017  17:34:45.337609	-2.447347E+0	1.064948E-2	2.155331E-2	-1.012614E+1	1.967868E-2	9.286120E-3	7.714242E-2	3.164702E-2
10/19/2017  17:34:45.338609	-2.706631E+0	1.573716E-2	2.155331E-2	-1.014396E+1	3.242842E-2	2.200605E-2	6.951371E-2	3.164702E-2
10/19/2017  17:34:45.339609	-4.928337E+0	1.573716E-2	1.391770E-2	-1.014905E+1	2.477858E-2	3.726996E-2	8.222822E-2	2.401527E-2
10/19/2017  17:34:45.340609	-4.862245E+0	2.591253E-2	1.646291E-2	-1.014905E+1	1.457878E-2	2.709402E-2	7.968532E-2	3.164702E-2
10/19/2017  17:34:45.341609	3.437665E-1	1.064948E-2	2.664372E-2	-1.013632E+1	1.712873E-2	1.691808E-2	6.951371E-2	3.673486E-2
10/19/2017  17:34:45.342609	4.850728E+0	1.319332E-2	2.664372E-2	-1.012105E+1	3.497837E-2	1.691808E-2	7.714242E-2	3.164702E-2
10/19/2017  17:34:45.343609	4.301657E+0	1.828100E-2	1.900811E-2	-1.011850E+1	3.242842E-2	1.946206E-2	7.714242E-2	3.164702E-2
10/19/2017  17:34:45.344609	4.995622E+0	1.573716E-2	1.391770E-2	-1.012869E+1	2.222863E-2	1.691808E-2	7.459952E-2	2.147136E-2
10/19/2017  17:34:45.345609	4.944782E+0	1.828100E-2	2.409852E-2	-1.013123E+1	2.222863E-2	1.946206E-2	7.968532E-2	2.910311E-2
10/19/2017  17:34:45.346609	2.537510E+0	3.017961E-3	1.900811E-2	-1.013123E+1	2.222863E-2	1.946206E-2	7.459952E-2	4.182269E-2
10/19/2017  17:34:45.347609	-1.344120E+0	2.082484E-2	1.137250E-2	-1.012359E+1	2.477858E-2	2.200605E-2	6.697081E-2	2.910311E-2
10/19/2017  17:34:45.348609	-1.168722E+0	1.828100E-2	1.900811E-2	-1.014142E+1	2.477858E-2	1.437409E-2	7.714242E-2	2.147136E-2
10/19/2017  17:34:45.349609	1.932515E+0	5.561801E-3	2.664372E-2	-1.014905E+1	1.712873E-2	2.200605E-2	7.968532E-2	4.182269E-2
10/19/2017  17:34:45.350609	1.973187E+0	3.017961E-3	2.155331E-2	-1.012869E+1	2.222863E-2	1.691808E-2	7.459952E-2	3.164702E-2
10/19/2017  17:34:45.351609	-3.026922E+0	1.828100E-2	1.646291E-2	-1.013887E+1	1.967868E-2	2.200605E-2	6.951371E-2	2.147136E-2
10/19/2017  17:34:45.352609	-3.499734E+0	1.064948E-2	1.646291E-2	-1.015415E+1	2.222863E-2	1.946206E-2	7.459952E-2	3.164702E-2
10/19/2017  17:34:45.353609	-4.951215E+0	1.319332E-2	2.409852E-2	-1.015160E+1	1.712873E-2	1.183011E-2	7.714242E-2	3.927877E-2
10/19/2017  17:34:45.354609	-4.908001E+0	8.105642E-3	1.900811E-2	-1.013632E+1	2.987847E-2	1.946206E-2	6.188501E-2	3.927877E-2
10/19/2017  17:34:45.355609	4.581564E-1	1.828100E-2	8.827299E-3	-1.013887E+1	2.987847E-2	2.709402E-2	7.714242E-2	1.638352E-2
10/19/2017  17:34:45.356609	2.901016E+0	2.082484E-2	1.900811E-2	-1.015415E+1	1.457878E-2	2.455003E-2	8.222822E-2	2.147136E-2
10/19/2017  17:34:45.357609	4.400795E+0	1.064948E-2	2.664372E-2	-1.012359E+1	1.967868E-2	1.691808E-2	7.968532E-2	5.708619E-2
10/19/2017  17:34:45.358609	4.172015E+0	5.561801E-3	1.900811E-2	-1.010577E+1	2.732853E-2	1.946206E-2	6.188501E-2	3.419094E-2
10/19/2017  17:34:45.359609	4.248275E+0	1.573716E-2	1.137250E-2	-1.013378E+1	2.732853E-2	1.946206E-2	6.951371E-2	1.129569E-2
10/19/2017  17:34:45.360609	5.003248E+0	1.319332E-2	2.664372E-2	-1.013887E+1	2.222863E-2	1.437409E-2	7.968532E-2	2.401527E-2
10/19/2017  17:34:45.361609	1.983355E+0	8.105642E-3	3.173413E-2	-1.013123E+1	1.457878E-2	1.946206E-2	7.205661E-2	3.164702E-2
								
10/19/2017  17:34:45.362609	-2.444805E+0	3.017961E-3	1.900811E-2	-1.013632E+1	1.967868E-2	2.200605E-2	7.205661E-2	2.910311E-2
10/19/2017  17:34:45.363609	-3.171529E-1	2.082484E-2	1.900811E-2	-1.014651E+1	1.712873E-2	1.183011E-2	6.951371E-2	2.147136E-2
10/19/2017  17:34:45.364609	2.451083E+0	1.573716E-2	2.664372E-2	-1.014905E+1	1.967868E-2	2.709402E-2	9.239983E-2	3.164702E-2
10/19/2017  17:34:45.365609	1.111450E+0	1.064948E-2	3.173413E-2	-1.013123E+1	1.202884E-2	2.455003E-2	8.477112E-2	4.182269E-2
10/19/2017  17:34:45.366609	-2.592241E+0	8.105642E-3	1.137250E-2	-1.013378E+1	2.477858E-2	1.691808E-2	6.951371E-2	3.419094E-2
10/19/2017  17:34:45.367609	-2.805769E+0	2.082484E-2	1.137250E-2	-1.014651E+1	3.242842E-2	1.946206E-2	6.951371E-2	2.147136E-2
10/19/2017  17:34:45.368609	-1.374624E+0	1.064948E-2	2.409852E-2	-1.015160E+1	1.967868E-2	2.963800E-2	8.222822E-2	2.910311E-2
10/19/2017  17:34:45.369609	-1.730504E+0	1.319332E-2	1.900811E-2	-1.014142E+1	3.242842E-2	2.709402E-2	8.222822E-2	4.436661E-2
10/19/2017  17:34:45.370609	-1.191600E+0	1.064948E-2	1.137250E-2	-1.012614E+1	2.477858E-2	2.200605E-2	7.205661E-2	3.164702E-2
10/19/2017  17:34:45.371609	5.906273E-2	2.082484E-2	1.900811E-2	-1.013887E+1	2.477858E-2	1.183011E-2	7.459952E-2	2.147136E-2
10/19/2017  17:34:45.372609	8.222774E-3	1.573716E-2	2.409852E-2	-1.012869E+1	1.967868E-2	2.200605E-2	8.222822E-2	3.673486E-2
10/19/2017  17:34:45.373609	-5.357647E-1	8.105642E-3	1.137250E-2	-1.012614E+1	3.242842E-2	1.946206E-2	6.442791E-2	4.182269E-2
10/19/2017  17:34:45.374609	-2.772723E+0	1.828100E-2	1.137250E-2	-1.014142E+1	4.517816E-2	2.963800E-2	7.205661E-2	1.892744E-2
10/19/2017  17:34:45.375609	-2.063505E+0	1.064948E-2	1.646291E-2	-1.014142E+1	1.967868E-2	1.946206E-2	8.222822E-2	2.910311E-2
10/19/2017  17:34:45.376609	3.590185E-1	8.105642E-3	1.900811E-2	-1.013378E+1	1.712873E-2	1.437409E-2	7.459952E-2	3.927877E-2
10/19/2017  17:34:45.377609	-3.756189E-1	1.319332E-2	1.646291E-2	-1.012614E+1	2.987847E-2	2.709402E-2	6.951371E-2	2.401527E-2
10/19/2017  17:34:45.378609	-2.144849E+0	1.573716E-2	1.646291E-2	-1.014651E+1	2.477858E-2	2.963800E-2	7.968532E-2	2.910311E-2
10/19/2017  17:34:45.379609	-3.570910E+0	1.319332E-2	1.646291E-2	-1.015160E+1	1.712873E-2	1.437409E-2	8.222822E-2	3.419094E-2
10/19/2017  17:34:45.380609	-4.031012E+0	8.105642E-3	8.827299E-3	-1.014142E+1	2.987847E-2	1.691808E-2	6.697081E-2	4.691052E-2
10/19/2017  17:34:45.381609	-4.923253E+0	1.573716E-2	1.137250E-2	-1.015669E+1	2.732853E-2	2.963800E-2	7.205661E-2	2.401527E-2
10/19/2017  17:34:45.382609	5.906273E-2	2.336868E-2	1.900811E-2	-1.014651E+1	1.457878E-2	2.455003E-2	7.968532E-2	2.910311E-2
10/19/2017  17:34:45.383609	5.003248E+0	8.105642E-3	2.409852E-2	-1.013887E+1	1.967868E-2	1.183011E-2	7.205661E-2	3.927877E-2
10/19/2017  17:34:45.384609	5.008332E+0	2.082484E-2	1.646291E-2	-1.012614E+1	1.967868E-2	2.709402E-2	7.459952E-2	2.910311E-2
10/19/2017  17:34:45.385609	4.238107E+0	1.828100E-2	1.137250E-2	-1.013632E+1	3.242842E-2	2.963800E-2	7.459952E-2	3.164702E-2
10/19/2017  17:34:45.386609	4.278779E+0	2.845637E-2	1.900811E-2	-1.013887E+1	1.712873E-2	2.455003E-2	8.222822E-2	2.910311E-2
10/19/2017  17:34:45.387609	2.041821E+0	8.105642E-3	2.409852E-2	-1.013123E+1	2.222863E-2	1.691808E-2	8.731403E-2	3.673486E-2
10/19/2017  17:34:45.388609	-1.163351E-1	8.105642E-3	1.646291E-2	-1.013632E+1	3.497837E-2	2.455003E-2	6.951371E-2	3.419094E-2
10/19/2017  17:34:45.389609	-4.747568E-1	1.319332E-2	1.137250E-2	-1.014905E+1	2.732853E-2	2.963800E-2	7.205661E-2	2.147136E-2
10/19/2017  17:34:45.390609	-1.067042E+0	1.828100E-2	1.137250E-2	-1.014396E+1	6.928941E-3	1.946206E-2	8.222822E-2	4.182269E-2
10/19/2017  17:34:45.391609	-7.594605E-1	1.064948E-2	1.900811E-2	-1.012869E+1	2.477858E-2	1.691808E-2	7.968532E-2	3.673486E-2
10/19/2017  17:34:45.392609	1.444451E+0	1.064948E-2	1.137250E-2	-1.013632E+1	3.242842E-2	3.726996E-2	6.697081E-2	3.419094E-2
10/19/2017  17:34:45.393609	-7.187886E-1	2.082484E-2	1.391770E-2	-1.013887E+1	1.712873E-2	2.963800E-2	6.951371E-2	3.419094E-2
10/19/2017  17:34:45.394609	-3.509902E+0	1.319332E-2	2.155331E-2	-1.014396E+1	1.457878E-2	9.286120E-3	7.714242E-2	2.147136E-2
								
10/19/2017  17:34:45.395609	-1.910985E+0	1.828100E-2	1.646291E-2	-1.014142E+1	2.987847E-2	1.183011E-2	7.459952E-2	3.927877E-2
10/19/2017  17:34:45.396609	-2.574447E+0	1.064948E-2	1.137250E-2	-1.014396E+1	2.987847E-2	1.183011E-2	6.951371E-2	2.147136E-2
10/19/2017  17:34:45.397609	-8.026745E-1	1.573716E-2	1.391770E-2	-1.013632E+1	1.457878E-2	2.963800E-2	7.205661E-2	2.147136E-2
10/19/2017  17:34:45.398609	-1.384792E+0	1.064948E-2	2.409852E-2	-1.012359E+1	1.457878E-2	1.946206E-2	8.222822E-2	3.164702E-2
10/19/2017  17:34:45.399609	-4.895291E+0	1.064948E-2	1.900811E-2	-1.013632E+1	3.497837E-2	1.691808E-2	7.714242E-2	4.691052E-2
10/19/2017  17:34:45.400609	-3.176900E+0	1.573716E-2	1.646291E-2	-1.013887E+1	2.477858E-2	2.455003E-2	6.951371E-2	3.164702E-2
10/19/2017  17:34:45.401609	1.861339E+0	1.064948E-2	1.646291E-2	-1.013887E+1	1.967868E-2	1.946206E-2	6.951371E-2	2.147136E-2
10/19/2017  17:34:45.402609	4.718545E+0	2.082484E-2	2.664372E-2	-1.013887E+1	1.712873E-2	2.200605E-2	8.222822E-2	3.164702E-2
10/19/2017  17:34:45.403609	4.993080E+0	1.064948E-2	2.918892E-2	-1.011596E+1	1.457878E-2	1.437409E-2	7.968532E-2	4.182269E-2
10/19/2017  17:34:45.404609	4.433841E+0	5.561801E-3	1.137250E-2	-1.010323E+1	2.987847E-2	1.946206E-2	6.442791E-2	3.164702E-2
10/19/2017  17:34:45.405609	5.018500E+0	1.573716E-2	6.282096E-3	-1.013378E+1	3.497837E-2	2.963800E-2	7.205661E-2	8.751773E-3
10/19/2017  17:34:45.406609	-8.382625E-1	2.082484E-2	2.409852E-2	-1.015924E+1	1.457878E-2	1.946206E-2	8.477112E-2	2.910311E-2
10/19/2017  17:34:45.407609	-2.955747E+0	1.573716E-2	2.918892E-2	-1.014142E+1	1.457878E-2	1.437409E-2	7.714242E-2	3.927877E-2
10/19/2017  17:34:45.408609	-5.586427E-1	1.064948E-2	1.137250E-2	-1.013632E+1	2.987847E-2	1.183011E-2	6.442791E-2	2.910311E-2
10/19/2017  17:34:45.409609	-1.984703E+0	8.105642E-3	1.137250E-2	-1.014651E+1	2.732853E-2	2.455003E-2	6.951371E-2	2.147136E-2
10/19/2017  17:34:45.410609	-8.077585E-1	1.319332E-2	2.409852E-2	-1.014142E+1	1.967868E-2	2.963800E-2	7.968532E-2	3.164702E-2
10/19/2017  17:34:45.411609	-9.577364E-1	8.105642E-3	3.682453E-2	-1.013123E+1	1.712873E-2	1.183011E-2	8.222822E-2	3.673486E-2
10/19/2017  17:34:45.412609	-3.527696E+0	3.017961E-3	1.137250E-2	-1.013378E+1	2.732853E-2	1.437409E-2	6.188501E-2	3.164702E-2
10/19/2017  17:34:45.413609	-4.938505E+0	2.082484E-2	1.191689E-3	-1.015415E+1	2.987847E-2	3.218199E-2	6.951371E-2	2.655919E-2
10/19/2017  17:34:45.414609	-4.869871E+0	1.828100E-2	2.409852E-2	-1.016178E+1	1.457878E-2	2.963800E-2	8.222822E-2	2.910311E-2
10/19/2017  17:34:45.415609	-1.496640E+0	5.561801E-3	2.409852E-2	-1.014142E+1	1.712873E-2	1.691808E-2	7.968532E-2	3.927877E-2
10/19/2017  17:34:45.416609	3.643279E+0	1.828100E-2	1.391770E-2	-1.011850E+1	2.222863E-2	1.437409E-2	6.697081E-2	3.164702E-2
10/19/2017  17:34:45.417609	5.005790E+0	1.828100E-2	8.827299E-3	-1.013378E+1	2.477858E-2	2.200605E-2	6.951371E-2	1.892744E-2
10/19/2017  17:34:45.418609	4.990538E+0	1.319332E-2	1.900811E-2	-1.014142E+1	2.222863E-2	2.709402E-2	8.222822E-2	2.910311E-2
10/19/2017  17:34:45.419609	1.841003E+0	1.319332E-2	2.918892E-2	-1.013123E+1	1.457878E-2	1.946206E-2	8.222822E-2	4.182269E-2
10/19/2017  17:34:45.420609	-6.933686E-1	-4.613560E-3	1.900811E-2	-1.014142E+1	1.712873E-2	1.437409E-2	7.459952E-2	3.673486E-2
10/19/2017  17:34:45.421609	-1.036251E-1	1.319332E-2	1.391770E-2	-1.014142E+1	2.222863E-2	1.946206E-2	7.459952E-2	3.164702E-2
10/19/2017  17:34:45.422609	-1.417551E-1	1.573716E-2	1.391770E-2	-1.013887E+1	3.497837E-2	2.455003E-2	6.697081E-2	2.401527E-2
10/19/2017  17:34:45.423609	2.601676E-2	1.828100E-2	2.409852E-2	-1.013887E+1	1.967868E-2	2.963800E-2	7.205661E-2	2.401527E-2
10/19/2017  17:34:45.424609	1.070778E+0	1.064948E-2	2.155331E-2	-1.013887E+1	1.457878E-2	2.200605E-2	7.968532E-2	2.655919E-2
10/19/2017  17:34:45.425609	-4.874668E-1	8.105642E-3	1.137250E-2	-1.013632E+1	1.967868E-2	1.437409E-2	7.205661E-2	3.673486E-2
10/19/2017  17:34:45.426609	-3.881034E+0	1.573716E-2	1.646291E-2	-1.014142E+1	2.732853E-2	1.946206E-2	6.951371E-2	4.436661E-2
10/19/2017  17:34:45.427609	-4.943589E+0	1.319332E-2	1.646291E-2	-1.013378E+1	2.222863E-2	2.963800E-2	6.951371E-2	2.401527E-2
								
10/19/2017  17:34:45.428609	-4.043722E+0	1.064948E-2	1.137250E-2	-1.014651E+1	2.222863E-2	2.200605E-2	7.459952E-2	4.945444E-2
10/19/2017  17:34:45.429609	-3.832736E+0	1.064948E-2	2.155331E-2	-1.015415E+1	1.712873E-2	1.437409E-2	7.714242E-2	3.673486E-2
10/19/2017  17:34:45.430609	-4.193699E+0	1.828100E-2	2.664372E-2	-1.014396E+1	1.967868E-2	1.946206E-2	7.459952E-2	2.910311E-2
10/19/2017  17:34:45.431609	-9.577364E-1	1.064948E-2	1.137250E-2	-1.013632E+1	1.967868E-2	2.963800E-2	6.442791E-2	2.910311E-2
10/19/2017  17:34:45.432609	4.451635E+0	1.828100E-2	8.827299E-3	-1.013632E+1	1.967868E-2	1.946206E-2	7.714242E-2	3.164702E-2
10/19/2017  17:34:45.433609	3.915273E+0	1.319332E-2	2.664372E-2	-1.013123E+1	2.222863E-2	2.455003E-2	7.205661E-2	3.164702E-2
10/19/2017  17:34:45.434609	3.770379E+0	1.828100E-2	2.664372E-2	-1.013123E+1	2.987847E-2	2.709402E-2	7.459952E-2	3.164702E-2
10/19/2017  17:34:45.435609	4.088129E+0	2.082484E-2	1.900811E-2	-1.013123E+1	2.222863E-2	1.946206E-2	7.205661E-2	3.164702E-2
10/19/2017  17:34:45.436609	2.806962E+0	2.082484E-2	2.409852E-2	-1.014142E+1	1.202884E-2	1.946206E-2	8.222822E-2	2.147136E-2
10/19/2017  17:34:45.437609	1.271596E+0	2.082484E-2	2.155331E-2	-1.013887E+1	2.477858E-2	2.200605E-2	7.714242E-2	3.164702E-2
10/19/2017  17:34:45.438609	1.485123E+0	1.064948E-2	1.900811E-2	-1.013632E+1	2.477858E-2	1.183011E-2	7.459952E-2	3.164702E-2
10/19/2017  17:34:45.439609	1.617307E+0	1.064948E-2	1.391770E-2	-1.012869E+1	2.222863E-2	2.709402E-2	6.951371E-2	2.655919E-2
10/19/2017  17:34:45.440609	-1.211321E-2	2.082484E-2	1.646291E-2	-1.013887E+1	1.967868E-2	1.437409E-2	7.714242E-2	2.147136E-2
10/19/2017  17:34:45.441609	2.547966E-1	1.828100E-2	2.664372E-2	-1.014651E+1	2.222863E-2	1.946206E-2	8.222822E-2	3.419094E-2
10/19/2017  17:34:45.442609	-1.773431E-1	1.064948E-2	1.900811E-2	-1.013887E+1	1.712873E-2	2.455003E-2	7.459952E-2	4.182269E-2
10/19/2017  17:34:45.443609	-9.679043E-1	1.064948E-2	1.646291E-2	-1.013887E+1	2.987847E-2	1.946206E-2	7.459952E-2	2.655919E-2
10/19/2017  17:34:45.444609	-9.068964E-1	1.319332E-2	1.137250E-2	-1.014396E+1	2.732853E-2	1.946206E-2	7.205661E-2	2.910311E-2
10/19/2017  17:34:45.445609	-7.111626E-1	1.828100E-2	1.646291E-2	-1.014396E+1	2.987847E-2	2.709402E-2	7.714242E-2	2.401527E-2
10/19/2017  17:34:45.446609	2.090406E-1	1.319332E-2	2.918892E-2	-1.014905E+1	1.457878E-2	2.200605E-2	7.968532E-2	2.910311E-2
10/19/2017  17:34:45.447609	2.682404E+0	8.105642E-3	1.900811E-2	-1.012869E+1	9.478889E-3	1.946206E-2	6.951371E-2	2.655919E-2
10/19/2017  17:34:45.448609	1.464787E+0	1.828100E-2	6.282096E-3	-1.013378E+1	2.987847E-2	1.946206E-2	7.205661E-2	2.910311E-2
10/19/2017  17:34:45.449609	2.855876E-2	2.336868E-2	2.155331E-2	-1.014396E+1	2.732853E-2	2.709402E-2	7.459952E-2	2.655919E-2
10/19/2017  17:34:45.450609	2.280769E+0	1.319332E-2	3.173413E-2	-1.012869E+1	1.457878E-2	2.455003E-2	7.714242E-2	2.910311E-2
10/19/2017  17:34:45.451609	2.120623E+0	4.741205E-4	1.391770E-2	-1.013378E+1	2.222863E-2	1.183011E-2	7.714242E-2	3.419094E-2
10/19/2017  17:34:45.452609	-1.555106E+0	3.017961E-3	1.137250E-2	-1.013123E+1	2.987847E-2	2.200605E-2	7.205661E-2	3.164702E-2
10/19/2017  17:34:45.453609	4.352784E-1	2.591253E-2	1.900811E-2	-1.014396E+1	2.987847E-2	2.963800E-2	6.951371E-2	2.655919E-2
10/19/2017  17:34:45.454609	1.688483E+0	1.319332E-2	1.900811E-2	-1.015160E+1	2.222863E-2	2.455003E-2	7.714242E-2	3.164702E-2
10/19/2017  17:34:45.455609	-4.061229E-1	1.319332E-2	2.409852E-2	-1.013378E+1	2.477858E-2	1.691808E-2	7.205661E-2	3.164702E-2
10/19/2017  17:34:45.456609	-6.399866E-1	1.828100E-2	1.646291E-2	-1.014142E+1	2.477858E-2	1.437409E-2	6.951371E-2	3.164702E-2
10/19/2017  17:34:45.457609	-2.002497E+0	1.573716E-2	2.409852E-2	-1.014142E+1	2.732853E-2	2.963800E-2	7.205661E-2	2.910311E-2
10/19/2017  17:34:45.458609	-3.817484E+0	8.105642E-3	1.900811E-2	-1.015160E+1	1.967868E-2	2.455003E-2	7.459952E-2	2.910311E-2
10/19/2017  17:34:45.459609	-3.016754E+0	1.319332E-2	2.409852E-2	-1.014651E+1	9.478889E-3	6.742135E-3	8.222822E-2	2.655919E-2
10/19/2017  17:34:45.460609	-2.358377E+0	4.741205E-4	2.155331E-2	-1.014142E+1	2.222863E-2	1.946206E-2	7.714242E-2	2.910311E-2
								
10/19/2017  17:34:45.461609	-1.318700E+0	1.319332E-2	1.137250E-2	-1.013887E+1	3.497837E-2	2.709402E-2	6.697081E-2	3.419094E-2
10/19/2017  17:34:45.462609	1.099027E-1	1.319332E-2	1.137250E-2	-1.014142E+1	2.477858E-2	2.963800E-2	6.951371E-2	2.655919E-2
10/19/2017  17:34:45.463609	2.092661E+0	2.082484E-2	2.664372E-2	-1.014142E+1	1.967868E-2	1.946206E-2	7.968532E-2	2.910311E-2
10/19/2017  17:34:45.464609	3.386538E+0	1.828100E-2	2.409852E-2	-1.012359E+1	2.477858E-2	1.691808E-2	7.714242E-2	3.673486E-2
10/19/2017  17:34:45.465609	4.380459E+0	8.105642E-3	1.900811E-2	-1.012614E+1	2.477858E-2	1.437409E-2	7.205661E-2	4.182269E-2
10/19/2017  17:34:45.466609	-2.360919E+0	5.561801E-3	1.646291E-2	-1.012105E+1	1.457878E-2	1.437409E-2	6.697081E-2	2.910311E-2
10/19/2017  17:34:45.467609	-4.943589E+0	1.573716E-2	1.900811E-2	-1.015669E+1	2.732853E-2	1.691808E-2	6.951371E-2	2.655919E-2
10/19/2017  17:34:45.468609	-3.906454E+0	1.828100E-2	2.155331E-2	-1.014905E+1	2.477858E-2	2.963800E-2	7.714242E-2	3.164702E-2
10/19/2017  17:34:45.469609	6.055922E-1	1.828100E-2	2.155331E-2	-1.013887E+1	1.457878E-2	2.963800E-2	7.968532E-2	3.164702E-2
10/19/2017  17:34:45.470609	2.496839E+0	1.319332E-2	2.409852E-2	-1.012105E+1	6.928941E-3	1.691808E-2	8.222822E-2	4.182269E-2
10/19/2017  17:34:45.471609	6.538902E-1	8.105642E-3	1.137250E-2	-1.012614E+1	2.732853E-2	9.286120E-3	7.205661E-2	3.927877E-2
10/19/2017  17:34:45.472609	-1.440716E+0	1.573716E-2	1.646291E-2	-1.014142E+1	3.242842E-2	1.946206E-2	6.951371E-2	4.691052E-2
10/19/2017  17:34:45.473609	-3.423474E+0	1.828100E-2	2.155331E-2	-1.013632E+1	2.477858E-2	3.218199E-2	6.951371E-2	2.147136E-2
10/19/2017  17:34:45.474609	-2.838815E+0	8.105642E-3	2.155331E-2	-1.013887E+1	1.457878E-2	1.946206E-2	8.222822E-2	2.147136E-2
10/19/2017  17:34:45.475609	2.151127E+0	8.105642E-3	1.900811E-2	-1.014396E+1	2.477858E-2	9.286120E-3	7.459952E-2	3.164702E-2
10/19/2017  17:34:45.476609	4.944782E+0	2.082484E-2	1.900811E-2	-1.012869E+1	3.497837E-2	2.455003E-2	6.951371E-2	2.147136E-2
10/19/2017  17:34:45.477609	9.360519E-1	1.573716E-2	1.646291E-2	-1.013632E+1	2.222863E-2	2.963800E-2	6.951371E-2	2.910311E-2
10/19/2017  17:34:45.478609	-1.130592E+0	5.561801E-3	8.827299E-3	-1.013887E+1	1.967868E-2	2.455003E-2	8.222822E-2	3.673486E-2
10/19/2017  17:34:45.479609	-2.259239E+0	1.828100E-2	1.900811E-2	-1.014396E+1	2.477858E-2	2.455003E-2	8.222822E-2	3.673486E-2
10/19/2017  17:34:45.480609	-2.419385E+0	1.828100E-2	3.427933E-2	-1.014396E+1	2.732853E-2	2.200605E-2	7.459952E-2	2.910311E-2
10/19/2017  17:34:45.481609	-1.801680E+0	5.561801E-3	1.900811E-2	-1.014142E+1	2.732853E-2	2.200605E-2	7.205661E-2	2.910311E-2
10/19/2017  17:34:45.482609	1.309726E+0	2.082484E-2	6.282096E-3	-1.014142E+1	1.202884E-2	2.709402E-2	7.714242E-2	2.147136E-2
10/19/2017  17:34:45.483609	7.809901E-1	1.064948E-2	2.409852E-2	-1.014396E+1	1.967868E-2	2.963800E-2	8.222822E-2	3.164702E-2
10/19/2017  17:34:45.484609	-1.044164E+0	8.105642E-3	2.664372E-2	-1.012614E+1	1.457878E-2	2.709402E-2	8.477112E-2	3.927877E-2
10/19/2017  17:34:45.485609	2.252807E+0	1.573716E-2	1.137250E-2	-1.012614E+1	2.987847E-2	1.437409E-2	6.951371E-2	3.673486E-2
10/19/2017  17:34:45.486609	5.005790E+0	2.082484E-2	1.137250E-2	-1.013378E+1	2.732853E-2	3.981394E-2	7.205661E-2	2.655919E-2
10/19/2017  17:34:45.487609	4.916820E+0	3.354405E-2	1.646291E-2	-1.013378E+1	2.987847E-2	2.709402E-2	7.205661E-2	3.164702E-2
10/19/2017  17:34:45.488609	1.779995E+0	1.064948E-2	2.918892E-2	-1.013887E+1	2.222863E-2	1.946206E-2	7.968532E-2	4.182269E-2
10/19/2017  17:34:45.489609	5.369583E-1	-9.701241E-3	1.646291E-2	-1.013123E+1	1.202884E-2	1.437409E-2	7.459952E-2	3.673486E-2
10/19/2017  17:34:45.490609	1.004686E+0	1.064948E-2	8.827299E-3	-1.013887E+1	2.987847E-2	1.946206E-2	6.951371E-2	3.419094E-2
10/19/2017  17:34:45.491609	4.635274E-2	1.573716E-2	1.900811E-2	-1.014396E+1	4.007827E-2	2.963800E-2	7.714242E-2	2.910311E-2
10/19/2017  17:34:45.492609	-1.738130E+0	2.082484E-2	2.664372E-2	-1.013632E+1	1.967868E-2	3.218199E-2	7.714242E-2	3.164702E-2
10/19/2017  17:34:45.493609	-8.916444E-1	1.064948E-2	1.646291E-2	-1.014651E+1	1.967868E-2	1.691808E-2	7.205661E-2	2.655919E-2
								
10/19/2017  17:34:45.494609	-4.290008E-1	1.064948E-2	1.137250E-2	-1.013887E+1	2.477858E-2	2.455003E-2	7.205661E-2	2.910311E-2
10/19/2017  17:34:45.495609	4.683244E-1	1.064948E-2	1.391770E-2	-1.014142E+1	2.987847E-2	2.455003E-2	7.205661E-2	2.910311E-2
10/19/2017  17:34:45.496609	1.937599E+0	1.573716E-2	2.155331E-2	-1.012359E+1	1.457878E-2	1.946206E-2	7.714242E-2	3.164702E-2
10/19/2017  17:34:45.497609	1.419031E+0	3.017961E-3	1.900811E-2	-1.012869E+1	1.967868E-2	1.691808E-2	7.459952E-2	2.655919E-2
10/19/2017  17:34:45.498609	1.007228E+0	1.573716E-2	1.391770E-2	-1.013123E+1	2.732853E-2	1.437409E-2	7.714242E-2	3.164702E-2
10/19/2017  17:34:45.499609	-6.041116E-2	2.591253E-2	2.409852E-2	-1.014396E+1	2.477858E-2	2.963800E-2	7.714242E-2	2.655919E-2
10/19/2017  17:34:45.500609	-1.855062E+0	1.319332E-2	2.664372E-2	-1.014651E+1	1.457878E-2	2.200605E-2	8.731403E-2	3.927877E-2
10/19/2017  17:34:45.501609	-1.717794E+0	4.741205E-4	1.137250E-2	-1.013887E+1	2.732853E-2	9.286120E-3	6.951371E-2	3.164702E-2
10/19/2017  17:34:45.502609	-1.598320E+0	1.319332E-2	1.391770E-2	-1.014142E+1	2.987847E-2	2.200605E-2	6.697081E-2	2.401527E-2
10/19/2017  17:34:45.503609	-8.026745E-1	1.828100E-2	2.664372E-2	-1.014651E+1	2.732853E-2	2.963800E-2	7.968532E-2	2.401527E-2
10/19/2017  17:34:45.504609	-2.739390E-1	1.064948E-2	2.155331E-2	-1.013632E+1	1.712873E-2	2.455003E-2	7.205661E-2	3.164702E-2
10/19/2017  17:34:45.505609	-8.328914E-2	5.561801E-3	3.736893E-3	-1.012869E+1	1.967868E-2	3.218199E-2	7.714242E-2	3.164702E-2
10/19/2017  17:34:45.506609	6.691422E-1	2.082484E-2	1.137250E-2	-1.014396E+1	2.987847E-2	1.946206E-2	7.205661E-2	3.164702E-2
10/19/2017  17:34:45.507609	5.369583E-1	1.828100E-2	1.646291E-2	-1.014651E+1	2.222863E-2	3.981394E-2	7.459952E-2	3.164702E-2
10/19/2017  17:34:45.508609	-1.763550E+0	8.105642E-3	2.409852E-2	-1.013887E+1	9.478889E-3	2.200605E-2	7.714242E-2	2.910311E-2
10/19/2017  17:34:45.509609	-3.248076E+0	8.105642E-3	1.646291E-2	-1.013632E+1	1.712873E-2	4.198150E-3	7.968532E-2	3.164702E-2
10/19/2017  17:34:45.510609	-9.679043E-1	1.828100E-2	1.137250E-2	-1.014142E+1	3.242842E-2	1.946206E-2	7.205661E-2	3.673486E-2
10/19/2017  17:34:45.511609	3.158045E-1	1.319332E-2	1.646291E-2	-1.013632E+1	3.242842E-2	2.709402E-2	7.205661E-2	2.910311E-2
10/19/2017  17:34:45.512609	1.787621E+0	1.064948E-2	2.155331E-2	-1.013632E+1	1.457878E-2	2.200605E-2	7.714242E-2	3.164702E-2
10/19/2017  17:34:45.513609	2.217219E+0	1.319332E-2	1.646291E-2	-1.012869E+1	2.222863E-2	2.200605E-2	7.459952E-2	3.164702E-2
10/19/2017  17:34:45.514609	-1.849978E+0	1.064948E-2	1.900811E-2	-1.012869E+1	4.007827E-2	1.437409E-2	7.459952E-2	2.910311E-2
10/19/2017  17:34:45.515609	-3.009128E+0	1.064948E-2	1.646291E-2	-1.013378E+1	2.987847E-2	2.455003E-2	6.951371E-2	3.164702E-2
10/19/2017  17:34:45.516609	9.589299E-1	1.573716E-2	1.646291E-2	-1.014905E+1	9.478889E-3	2.963800E-2	7.205661E-2	3.673486E-2
10/19/2017  17:34:45.517609	1.136870E+0	2.082484E-2	1.137250E-2	-1.013632E+1	2.222863E-2	2.200605E-2	6.951371E-2	2.147136E-2
10/19/2017  17:34:45.518609	5.397873E-2	1.828100E-2	2.918892E-2	-1.012614E+1	1.712873E-2	2.455003E-2	7.968532E-2	4.945444E-2
10/19/2017  17:34:45.519609	-1.260234E+0	1.064948E-2	2.409852E-2	-1.012105E+1	2.222863E-2	1.437409E-2	7.205661E-2	3.673486E-2
10/19/2017  17:34:45.520609	-1.514434E+0	8.105642E-3	1.391770E-2	-1.013632E+1	2.477858E-2	1.946206E-2	7.205661E-2	2.655919E-2
10/19/2017  17:34:45.521609	-1.260234E+0	1.573716E-2	2.155331E-2	-1.014905E+1	1.967868E-2	1.437409E-2	7.714242E-2	2.655919E-2
10/19/2017  17:34:45.522609	1.533421E+0	2.082484E-2	1.900811E-2	-1.013887E+1	2.477858E-2	2.200605E-2	7.459952E-2	3.164702E-2
10/19/2017  17:34:45.523609	2.372281E+0	1.319332E-2	1.900811E-2	-1.012614E+1	2.477858E-2	2.455003E-2	8.222822E-2	3.927877E-2
10/19/2017  17:34:45.524609	-3.105724E+0	4.741205E-4	8.827299E-3	-1.013632E+1	1.967868E-2	9.286120E-3	6.951371E-2	3.673486E-2
10/19/2017  17:34:45.525609	-2.480393E+0	1.319332E-2	1.137250E-2	-1.014396E+1	2.987847E-2	2.963800E-2	5.934210E-2	2.401527E-2
10/19/2017  17:34:45.526609	2.036737E+0	2.082484E-2	3.173413E-2	-1.014651E+1	1.712873E-2	3.218199E-2	7.968532E-2	2.910311E-2
								
10/19/2017  17:34:45.527609	4.103381E+0	4.741205E-4	2.664372E-2	-1.012614E+1	1.457878E-2	1.691808E-2	7.714242E-2	3.419094E-2
10/19/2017  17:34:45.528609	2.501923E+0	1.064948E-2	2.409852E-2	-1.013123E+1	2.477858E-2	6.742135E-3	6.951371E-2	3.164702E-2
10/19/2017  17:34:45.529609	2.662068E+0	1.573716E-2	1.137250E-2	-1.013887E+1	3.497837E-2	2.963800E-2	6.697081E-2	1.892744E-2
10/19/2017  17:34:45.530609	-2.165185E+0	1.828100E-2	2.155331E-2	-1.015160E+1	2.222863E-2	4.744590E-2	8.222822E-2	3.673486E-2
10/19/2017  17:34:45.531609	-3.804774E+0	-2.069720E-3	2.409852E-2	-1.014396E+1	1.202884E-2	1.183011E-2	7.968532E-2	3.164702E-2
10/19/2017  17:34:45.532609	-1.654244E+0	1.064948E-2	1.391770E-2	-1.014396E+1	2.987847E-2	-8.898203E-4	7.205661E-2	3.164702E-2
10/19/2017  17:34:45.533609	3.157758E+0	3.608789E-2	1.646291E-2	-1.013632E+1	2.987847E-2	1.946206E-2	6.951371E-2	2.655919E-2
10/19/2017  17:34:45.534609	3.813593E+0	1.064948E-2	2.155331E-2	-1.013632E+1	2.222863E-2	2.455003E-2	7.205661E-2	3.673486E-2
10/19/2017  17:34:45.535609	1.607139E+0	1.573716E-2	2.409852E-2	-1.012614E+1	1.457878E-2	1.946206E-2	7.459952E-2	2.910311E-2
10/19/2017  17:34:45.536609	2.014146E-1	1.319332E-2	1.646291E-2	-1.012869E+1	2.222863E-2	9.286120E-3	7.459952E-2	3.419094E-2
10/19/2017  17:34:45.537609	-2.111803E+0	1.828100E-2	1.900811E-2	-1.013887E+1	4.262821E-2	1.946206E-2	6.697081E-2	2.147136E-2
10/19/2017  17:34:45.538609	-3.019296E+0	1.828100E-2	2.664372E-2	-1.014905E+1	2.477858E-2	1.691808E-2	7.205661E-2	2.655919E-2
10/19/2017  17:34:45.539609	-4.285211E+0	1.064948E-2	2.409852E-2	-1.014396E+1	2.222863E-2	2.200605E-2	6.951371E-2	2.147136E-2
10/19/2017  17:34:45.540609	-4.277585E+0	8.105642E-3	1.391770E-2	-1.013887E+1	2.477858E-2	9.286120E-3	7.459952E-2	4.182269E-2
10/19/2017  17:34:45.541609	5.471263E-1	1.573716E-2	1.391770E-2	-1.013887E+1	2.987847E-2	2.200605E-2	6.951371E-2	4.945444E-2
10/19/2017  17:34:45.542609	3.811051E+0	1.828100E-2	2.664372E-2	-1.012614E+1	2.477858E-2	2.963800E-2	7.459952E-2	2.655919E-2
10/19/2017  17:34:45.543609	3.877143E+0	8.105642E-3	1.900811E-2	-1.012614E+1	1.457878E-2	1.946206E-2	8.222822E-2	2.401527E-2
10/19/2017  17:34:45.544609	5.008332E+0	8.105642E-3	1.900811E-2	-1.012105E+1	2.222863E-2	1.183011E-2	7.714242E-2	3.927877E-2
10/19/2017  17:34:45.545609	4.965118E+0	8.105642E-3	8.827299E-3	-1.011850E+1	3.242842E-2	1.691808E-2	7.459952E-2	3.164702E-2
10/19/2017  17:34:45.546609	1.896927E+0	8.105642E-3	1.646291E-2	-1.013887E+1	2.477858E-2	2.200605E-2	6.442791E-2	2.401527E-2
10/19/2017  17:34:45.547609	-4.267417E+0	5.561801E-3	6.282096E-3	-1.014905E+1	1.712873E-2	2.455003E-2	7.205661E-2	2.910311E-2
10/19/2017  17:34:45.548609	-4.951215E+0	1.828100E-2	2.409852E-2	-1.015160E+1	1.967868E-2	2.200605E-2	8.731403E-2	2.910311E-2
10/19/2017  17:34:45.549609	-4.956299E+0	8.105642E-3	3.173413E-2	-1.015160E+1	2.732853E-2	2.200605E-2	7.205661E-2	2.910311E-2
10/19/2017  17:34:45.550609	-6.552386E-1	1.064948E-2	1.137250E-2	-1.014142E+1	2.477858E-2	2.200605E-2	6.951371E-2	3.164702E-2
10/19/2017  17:34:45.551609	1.373276E+0	2.082484E-2	8.827299E-3	-1.013887E+1	1.457878E-2	1.946206E-2	7.459952E-2	1.892744E-2
