Parameters: 	Upper Cutoff:  500	Lower Cutoff: 20	Sample Rate (Hz): 1000	Frames Per Second30	Display Window Size (S)1600	MVC Window Size (s): 1600	Seconds To Acquire MVC: 3	Display Channel: 0
waveform	[0]	[1]	[2]	[3]	[4]	[5]	[6]	[7]
t0	10/19/2017  17:40:02.704659	10/19/2017  17:40:02.704659	10/19/2017  17:40:02.704659	10/19/2017  17:40:02.704659	10/19/2017  17:40:02.704659	10/19/2017  17:40:02.704659	10/19/2017  17:40:02.704659	10/19/2017  17:40:02.704659
delta t	0.001000	0.001000	0.001000	0.001000	0.001000	0.001000	0.001000	0.001000

time	Y[0]	Y[1]	Y[2]	Y[3]	Y[4]	Y[5]	Y[6]	Y[7]
10/19/2017  17:40:02.684632	-4.798408E-1	1.064948E-2	1.900811E-2	-1.013632E+1	2.222863E-2	2.200605E-2	7.714242E-2	4.182269E-2
10/19/2017  17:40:02.685632	-8.204685E-1	1.828100E-2	1.391770E-2	-1.013887E+1	2.732853E-2	1.946206E-2	7.968532E-2	3.164702E-2
10/19/2017  17:40:02.686632	-1.956741E+0	2.591253E-2	2.155331E-2	-1.014905E+1	2.222863E-2	2.455003E-2	7.205661E-2	2.401527E-2
10/19/2017  17:40:02.687632	-1.041622E+0	8.105642E-3	2.664372E-2	-1.014651E+1	1.457878E-2	1.946206E-2	7.205661E-2	3.164702E-2
10/19/2017  17:40:02.688632	-7.975905E-1	1.319332E-2	1.391770E-2	-1.013887E+1	1.457878E-2	2.963800E-2	7.714242E-2	3.419094E-2
10/19/2017  17:40:02.689632	-5.786917E-2	1.828100E-2	2.155331E-2	-1.013632E+1	1.967868E-2	2.455003E-2	7.205661E-2	2.401527E-2
10/19/2017  17:40:02.690632	2.423121E+0	1.573716E-2	2.155331E-2	-1.013887E+1	2.222863E-2	9.286120E-3	8.222822E-2	3.419094E-2
10/19/2017  17:40:02.691632	9.462199E-1	-4.613560E-3	1.900811E-2	-1.013378E+1	1.712873E-2	1.691808E-2	6.951371E-2	3.673486E-2
10/19/2017  17:40:02.692632	-1.290738E+0	1.064948E-2	6.282096E-3	-1.014396E+1	2.987847E-2	9.286120E-3	7.205661E-2	2.401527E-2
10/19/2017  17:40:02.693632	-1.430548E+0	2.845637E-2	1.646291E-2	-1.013887E+1	1.967868E-2	1.946206E-2	7.205661E-2	3.419094E-2
10/19/2017  17:40:02.694632	2.133333E+0	8.105642E-3	1.900811E-2	-1.013123E+1	1.967868E-2	1.437409E-2	7.459952E-2	4.182269E-2
10/19/2017  17:40:02.695632	1.881675E+0	1.064948E-2	1.137250E-2	-1.012869E+1	2.987847E-2	2.200605E-2	6.442791E-2	2.910311E-2
10/19/2017  17:40:02.696632	3.208885E-1	1.319332E-2	1.391770E-2	-1.013123E+1	1.967868E-2	2.455003E-2	6.951371E-2	3.419094E-2
10/19/2017  17:40:02.697632	-9.094384E-1	1.064948E-2	1.137250E-2	-1.013887E+1	2.477858E-2	1.691808E-2	7.714242E-2	3.673486E-2
10/19/2017  17:40:02.698632	-1.209394E+0	1.064948E-2	1.391770E-2	-1.014142E+1	2.477858E-2	1.946206E-2	6.697081E-2	3.164702E-2
10/19/2017  17:40:02.699632	-4.544208E-1	2.082484E-2	1.391770E-2	-1.014905E+1	1.457878E-2	2.709402E-2	7.459952E-2	3.419094E-2
10/19/2017  17:40:02.700632	6.869362E-1	1.319332E-2	1.900811E-2	-1.015160E+1	1.457878E-2	1.691808E-2	8.222822E-2	2.910311E-2
10/19/2017  17:40:02.701632	2.384991E+0	3.017961E-3	2.155331E-2	-1.013887E+1	1.967868E-2	2.455003E-2	7.714242E-2	4.182269E-2
10/19/2017  17:40:02.702632	3.920644E-1	1.064948E-2	2.155331E-2	-1.013378E+1	2.222863E-2	1.946206E-2	7.714242E-2	2.655919E-2
10/19/2017  17:40:02.703632	-9.958663E-1	1.573716E-2	2.409852E-2	-1.013632E+1	1.202884E-2	1.946206E-2	7.968532E-2	3.164702E-2
10/19/2017  17:40:02.704632	-7.747125E-1	1.064948E-2	1.646291E-2	-1.013632E+1	2.222863E-2	6.742135E-3	6.951371E-2	3.164702E-2
10/19/2017  17:40:02.705632	-2.485190E-1	5.561801E-3	1.391770E-2	-1.013887E+1	2.222863E-2	2.455003E-2	6.951371E-2	2.401527E-2
10/19/2017  17:40:02.706632	1.022767E-1	1.064948E-2	2.409852E-2	-1.013887E+1	1.457878E-2	2.455003E-2	8.222822E-2	3.164702E-2
10/19/2017  17:40:02.707632	3.768124E-1	1.064948E-2	8.827299E-3	-1.013887E+1	2.477858E-2	9.286120E-3	7.459952E-2	3.419094E-2
10/19/2017  17:40:02.708632	5.827143E-1	5.561801E-3	1.137250E-2	-1.013887E+1	2.222863E-2	1.946206E-2	6.951371E-2	3.164702E-2
10/19/2017  17:40:02.709632	1.759946E-1	1.828100E-2	2.664372E-2	-1.014396E+1	1.457878E-2	2.709402E-2	7.968532E-2	2.910311E-2
10/19/2017  17:40:02.710632	-9.854113E-2	1.573716E-2	1.900811E-2	-1.013378E+1	2.222863E-2	1.437409E-2	7.714242E-2	3.927877E-2
10/19/2017  17:40:02.711632	-2.434350E-1	1.828100E-2	1.391770E-2	-1.014396E+1	2.987847E-2	3.472597E-2	7.205661E-2	2.147136E-2
10/19/2017  17:40:02.712632	-9.933243E-1	2.082484E-2	2.664372E-2	-1.014651E+1	1.967868E-2	2.709402E-2	8.222822E-2	2.147136E-2
10/19/2017  17:40:02.713632	-3.654509E-1	8.105642E-3	2.409852E-2	-1.014142E+1	2.477858E-2	1.691808E-2	7.205661E-2	2.147136E-2
10/19/2017  17:40:02.714632	3.335985E-1	1.064948E-2	1.646291E-2	-1.013632E+1	2.477858E-2	1.691808E-2	6.951371E-2	2.910311E-2
10/19/2017  17:40:02.715632	-1.867772E+0	2.082484E-2	1.646291E-2	-1.013887E+1	1.967868E-2	2.200605E-2	7.205661E-2	2.655919E-2
10/19/2017  17:40:02.716632	-2.238903E+0	-2.069720E-3	2.155331E-2	-1.015160E+1	1.457878E-2	2.200605E-2	7.205661E-2	2.910311E-2
								
10/19/2017  17:40:02.717632	-9.091514E-2	1.319332E-2	1.900811E-2	-1.013378E+1	2.222863E-2	1.946206E-2	7.459952E-2	3.927877E-2
10/19/2017  17:40:02.718632	1.327807E-1	1.319332E-2	1.137250E-2	-1.013632E+1	4.262821E-2	1.691808E-2	6.951371E-2	3.927877E-2
10/19/2017  17:40:02.719632	-9.094384E-1	2.082484E-2	2.155331E-2	-1.013887E+1	1.457878E-2	2.963800E-2	7.205661E-2	2.910311E-2
10/19/2017  17:40:02.720632	-1.499182E+0	1.319332E-2	2.155331E-2	-1.013632E+1	1.457878E-2	1.946206E-2	8.222822E-2	3.164702E-2
10/19/2017  17:40:02.721632	-2.243987E+0	1.319332E-2	8.827299E-3	-1.014396E+1	1.967868E-2	1.183011E-2	7.459952E-2	3.164702E-2
10/19/2017  17:40:02.722632	4.708664E-1	1.064948E-2	1.646291E-2	-1.013887E+1	2.987847E-2	1.946206E-2	7.968532E-2	4.691052E-2
10/19/2017  17:40:02.723632	2.656984E+0	1.319332E-2	2.155331E-2	-1.012869E+1	2.222863E-2	2.455003E-2	7.459952E-2	2.655919E-2
10/19/2017  17:40:02.724632	3.554310E+0	1.319332E-2	1.646291E-2	-1.013123E+1	1.712873E-2	1.691808E-2	8.222822E-2	2.910311E-2
10/19/2017  17:40:02.725632	3.859349E+0	1.573716E-2	1.646291E-2	-1.013887E+1	1.967868E-2	1.437409E-2	6.697081E-2	3.164702E-2
10/19/2017  17:40:02.726632	1.607139E+0	5.561801E-3	2.664372E-2	-1.013378E+1	2.732853E-2	1.946206E-2	7.205661E-2	2.655919E-2
10/19/2017  17:40:02.727632	2.751325E-1	1.319332E-2	1.391770E-2	-1.013632E+1	1.457878E-2	2.963800E-2	9.239983E-2	3.164702E-2
10/19/2017  17:40:02.728632	-1.239611E-1	8.105642E-3	1.900811E-2	-1.013123E+1	2.222863E-2	1.183011E-2	6.951371E-2	3.419094E-2
10/19/2017  17:40:02.729632	-1.079752E+0	8.105642E-3	1.137250E-2	-1.014651E+1	2.732853E-2	2.200605E-2	6.188501E-2	2.910311E-2
10/19/2017  17:40:02.730632	-1.925950E-1	2.082484E-2	2.918892E-2	-1.014396E+1	1.967868E-2	1.691808E-2	7.459952E-2	3.164702E-2
10/19/2017  17:40:02.731632	4.454464E-1	1.828100E-2	1.900811E-2	-1.013632E+1	1.712873E-2	1.946206E-2	7.459952E-2	3.927877E-2
10/19/2017  17:40:02.732632	1.396154E+0	1.064948E-2	1.900811E-2	-1.013632E+1	2.222863E-2	2.200605E-2	6.697081E-2	2.655919E-2
10/19/2017  17:40:02.733632	4.022324E-1	1.064948E-2	1.900811E-2	-1.014142E+1	1.967868E-2	2.963800E-2	7.714242E-2	2.401527E-2
10/19/2017  17:40:02.734632	5.725463E-1	1.573716E-2	2.409852E-2	-1.013378E+1	2.222863E-2	1.691808E-2	7.968532E-2	2.401527E-2
10/19/2017  17:40:02.735632	7.937001E-1	2.082484E-2	1.900811E-2	-1.013632E+1	2.987847E-2	1.946206E-2	7.968532E-2	3.164702E-2
10/19/2017  17:40:02.736632	7.939871E-2	1.319332E-2	1.391770E-2	-1.013632E+1	2.477858E-2	2.455003E-2	7.459952E-2	3.419094E-2
10/19/2017  17:40:02.737632	-7.137046E-1	3.017961E-3	1.391770E-2	-1.014905E+1	2.222863E-2	1.946206E-2	7.205661E-2	2.910311E-2
10/19/2017  17:40:02.738632	-1.333952E+0	1.319332E-2	1.900811E-2	-1.014651E+1	2.477858E-2	1.946206E-2	7.459952E-2	3.927877E-2
10/19/2017  17:40:02.739632	-2.129310E-1	1.064948E-2	1.137250E-2	-1.013887E+1	3.497837E-2	2.455003E-2	6.951371E-2	3.164702E-2
10/19/2017  17:40:02.740632	-1.366998E+0	1.828100E-2	1.900811E-2	-1.015160E+1	2.477858E-2	2.963800E-2	7.968532E-2	2.655919E-2
10/19/2017  17:40:02.741632	-2.996419E+0	5.561801E-3	2.155331E-2	-1.013632E+1	1.712873E-2	1.691808E-2	8.222822E-2	3.673486E-2
10/19/2017  17:40:02.742632	-3.466688E+0	1.319332E-2	8.827299E-3	-1.013632E+1	2.732853E-2	1.946206E-2	7.205661E-2	3.164702E-2
10/19/2017  17:40:02.743632	-1.219562E+0	2.082484E-2	2.155331E-2	-1.014651E+1	2.222863E-2	2.709402E-2	7.714242E-2	3.927877E-2
10/19/2017  17:40:02.744632	-1.201768E+0	1.319332E-2	3.173413E-2	-1.012105E+1	1.967868E-2	2.709402E-2	6.951371E-2	3.419094E-2
10/19/2017  17:40:02.745632	2.639190E+0	8.105642E-3	1.391770E-2	-1.013632E+1	2.987847E-2	1.691808E-2	6.951371E-2	2.401527E-2
10/19/2017  17:40:02.746632	1.929973E+0	1.828100E-2	1.391770E-2	-1.014651E+1	2.222863E-2	2.455003E-2	7.968532E-2	2.147136E-2
10/19/2017  17:40:02.747632	2.232471E+0	8.105642E-3	2.409852E-2	-1.012614E+1	1.712873E-2	2.200605E-2	7.968532E-2	3.927877E-2
10/19/2017  17:40:02.748632	2.130791E+0	3.017961E-3	1.137250E-2	-1.012869E+1	2.732853E-2	1.183011E-2	6.188501E-2	3.927877E-2
10/19/2017  17:40:02.749632	1.309726E+0	1.064948E-2	1.191689E-3	-1.014142E+1	2.987847E-2	3.218199E-2	6.951371E-2	2.401527E-2
								
10/19/2017  17:40:02.750632	2.451083E+0	1.319332E-2	2.409852E-2	-1.013632E+1	1.712873E-2	1.946206E-2	8.222822E-2	3.164702E-2
10/19/2017  17:40:02.751632	1.012312E+0	8.105642E-3	3.427933E-2	-1.012869E+1	2.477858E-2	2.455003E-2	7.205661E-2	2.910311E-2
10/19/2017  17:40:02.752632	4.378204E-1	1.828100E-2	1.137250E-2	-1.013632E+1	1.712873E-2	1.946206E-2	6.951371E-2	3.164702E-2
10/19/2017  17:40:02.753632	9.970599E-1	1.828100E-2	1.391770E-2	-1.013887E+1	2.987847E-2	1.183011E-2	6.951371E-2	2.655919E-2
10/19/2017  17:40:02.754632	7.835321E-1	8.105642E-3	1.391770E-2	-1.014396E+1	2.477858E-2	2.200605E-2	7.714242E-2	4.182269E-2
10/19/2017  17:40:02.755632	5.369583E-1	1.319332E-2	1.646291E-2	-1.013887E+1	2.477858E-2	2.709402E-2	6.951371E-2	3.419094E-2
10/19/2017  17:40:02.756632	4.047744E-1	1.828100E-2	1.646291E-2	-1.013887E+1	1.712873E-2	2.455003E-2	7.459952E-2	2.401527E-2
10/19/2017  17:40:02.757632	1.404067E-1	1.319332E-2	2.155331E-2	-1.014142E+1	1.967868E-2	6.742135E-3	8.222822E-2	2.401527E-2
10/19/2017  17:40:02.758632	1.327807E-1	-7.157401E-3	1.137250E-2	-1.013632E+1	3.497837E-2	1.437409E-2	6.951371E-2	3.673486E-2
10/19/2017  17:40:02.759632	4.126874E-2	1.828100E-2	8.827299E-3	-1.013887E+1	2.987847E-2	2.963800E-2	6.951371E-2	2.655919E-2
10/19/2017  17:40:02.760632	1.099027E-1	1.319332E-2	2.409852E-2	-1.013123E+1	2.477858E-2	2.200605E-2	8.222822E-2	3.673486E-2
10/19/2017  17:40:02.761632	2.115826E-1	8.105642E-3	1.137250E-2	-1.013887E+1	1.967868E-2	1.183011E-2	7.205661E-2	3.419094E-2
10/19/2017  17:40:02.762632	3.310565E-1	8.105642E-3	2.155331E-2	-1.013887E+1	1.457878E-2	2.963800E-2	5.934210E-2	2.655919E-2
10/19/2017  17:40:02.763632	3.259725E-1	1.828100E-2	2.918892E-2	-1.014142E+1	1.967868E-2	2.455003E-2	7.459952E-2	3.164702E-2
10/19/2017  17:40:02.764632	2.344606E-1	5.561801E-3	1.391770E-2	-1.013887E+1	2.222863E-2	1.691808E-2	7.968532E-2	3.164702E-2
10/19/2017  17:40:02.765632	4.352784E-1	2.082484E-2	1.646291E-2	-1.014396E+1	2.477858E-2	2.709402E-2	6.442791E-2	2.401527E-2
10/19/2017  17:40:02.766632	9.465070E-2	1.573716E-2	2.918892E-2	-1.014396E+1	1.457878E-2	2.709402E-2	7.968532E-2	3.927877E-2
10/19/2017  17:40:02.767632	-2.205570E-1	1.064948E-2	2.155331E-2	-1.011850E+1	1.967868E-2	1.946206E-2	7.968532E-2	3.927877E-2
10/19/2017  17:40:02.768632	-5.942307E-1	1.828100E-2	1.900811E-2	-1.013887E+1	2.987847E-2	1.946206E-2	6.951371E-2	3.673486E-2
10/19/2017  17:40:02.769632	-1.392131E-1	1.319332E-2	1.900811E-2	-1.014651E+1	1.967868E-2	1.437409E-2	7.968532E-2	3.419094E-2
10/19/2017  17:40:02.770632	-4.671308E-1	1.828100E-2	1.137250E-2	-1.013632E+1	1.967868E-2	1.946206E-2	7.968532E-2	4.182269E-2
10/19/2017  17:40:02.771632	-1.082294E+0	1.828100E-2	1.137250E-2	-1.014396E+1	3.242842E-2	3.726996E-2	7.459952E-2	2.401527E-2
10/19/2017  17:40:02.772632	-1.788970E+0	1.828100E-2	1.646291E-2	-1.014396E+1	1.457878E-2	2.963800E-2	8.222822E-2	3.164702E-2
10/19/2017  17:40:02.773632	-1.557648E+0	5.561801E-3	1.646291E-2	-1.013378E+1	1.712873E-2	1.437409E-2	6.188501E-2	4.182269E-2
10/19/2017  17:40:02.774632	1.070778E+0	1.319332E-2	2.664372E-2	-1.014396E+1	1.967868E-2	1.183011E-2	7.459952E-2	3.164702E-2
10/19/2017  17:40:02.775632	1.078404E+0	1.573716E-2	2.155331E-2	-1.015415E+1	1.967868E-2	1.946206E-2	8.477112E-2	2.910311E-2
10/19/2017  17:40:02.776632	-7.721705E-1	8.105642E-3	1.391770E-2	-1.013123E+1	2.222863E-2	3.218199E-2	7.205661E-2	4.182269E-2
10/19/2017  17:40:02.777632	-1.900817E+0	5.561801E-3	8.827299E-3	-1.013887E+1	1.202884E-2	2.200605E-2	7.205661E-2	2.147136E-2
10/19/2017  17:40:02.778632	-5.357647E-1	1.573716E-2	1.391770E-2	-1.014396E+1	1.202884E-2	1.437409E-2	7.968532E-2	2.910311E-2
10/19/2017  17:40:02.779632	8.343720E-1	8.105642E-3	1.646291E-2	-1.014142E+1	2.477858E-2	1.946206E-2	7.459952E-2	4.182269E-2
10/19/2017  17:40:02.780632	1.871507E+0	1.064948E-2	1.137250E-2	-1.014651E+1	2.987847E-2	2.200605E-2	6.697081E-2	2.910311E-2
10/19/2017  17:40:02.781632	2.374823E+0	2.082484E-2	2.155331E-2	-1.013887E+1	6.928941E-3	2.963800E-2	7.968532E-2	3.164702E-2
10/19/2017  17:40:02.782632	9.665559E-1	5.561801E-3	1.137250E-2	-1.013378E+1	2.477858E-2	1.183011E-2	7.714242E-2	3.673486E-2
								
10/19/2017  17:40:02.783632	-1.133134E+0	1.064948E-2	1.900811E-2	-1.013378E+1	2.222863E-2	2.455003E-2	7.968532E-2	3.164702E-2
10/19/2017  17:40:02.784632	3.760211E+0	1.064948E-2	1.900811E-2	-1.013887E+1	1.202884E-2	3.472597E-2	7.968532E-2	3.164702E-2
10/19/2017  17:40:02.785632	-5.255967E-1	5.561801E-3	1.391770E-2	-1.013378E+1	2.222863E-2	1.183011E-2	7.714242E-2	3.927877E-2
10/19/2017  17:40:02.786632	-2.818479E+0	1.064948E-2	1.191689E-3	-1.013887E+1	2.477858E-2	2.455003E-2	6.188501E-2	2.655919E-2
10/19/2017  17:40:02.787632	-3.548032E+0	1.828100E-2	2.664372E-2	-1.015415E+1	1.457878E-2	2.455003E-2	8.222822E-2	3.164702E-2
10/19/2017  17:40:02.788632	-1.196684E+0	3.017961E-3	1.646291E-2	-1.012359E+1	1.967868E-2	1.691808E-2	7.459952E-2	3.673486E-2
10/19/2017  17:40:02.789632	2.842550E+0	1.573716E-2	6.282096E-3	-1.013887E+1	2.987847E-2	1.946206E-2	6.697081E-2	3.164702E-2
10/19/2017  17:40:02.790632	1.022767E-1	1.828100E-2	2.409852E-2	-1.016178E+1	2.222863E-2	2.963800E-2	6.442791E-2	2.401527E-2
10/19/2017  17:40:02.791632	-1.278028E+0	3.017961E-3	2.155331E-2	-1.013123E+1	1.202884E-2	1.437409E-2	7.968532E-2	3.927877E-2
10/19/2017  17:40:02.792632	1.810786E-1	1.064948E-2	1.137250E-2	-1.013123E+1	2.732853E-2	1.437409E-2	7.968532E-2	3.164702E-2
10/19/2017  17:40:02.793632	-2.841070E-1	2.591253E-2	1.900811E-2	-1.014905E+1	2.477858E-2	2.709402E-2	7.205661E-2	2.401527E-2
10/19/2017  17:40:02.794632	1.185168E+0	5.561801E-3	2.409852E-2	-1.014142E+1	1.202884E-2	2.200605E-2	6.951371E-2	3.164702E-2
10/19/2017  17:40:02.795632	3.463085E-1	1.064948E-2	8.827299E-3	-1.013632E+1	9.478889E-3	6.742135E-3	7.205661E-2	3.164702E-2
10/19/2017  17:40:02.796632	-1.211936E+0	1.828100E-2	1.646291E-2	-1.014651E+1	1.967868E-2	2.200605E-2	7.205661E-2	2.401527E-2
10/19/2017  17:40:02.797632	5.623783E-1	1.064948E-2	2.409852E-2	-1.014651E+1	2.222863E-2	1.437409E-2	8.222822E-2	3.419094E-2
10/19/2017  17:40:02.798632	2.171463E+0	4.741205E-4	1.646291E-2	-1.013123E+1	1.967868E-2	1.437409E-2	7.459952E-2	3.673486E-2
10/19/2017  17:40:02.799632	6.055922E-1	1.064948E-2	1.137250E-2	-1.012869E+1	2.732853E-2	1.437409E-2	6.697081E-2	2.147136E-2
10/19/2017  17:40:02.800632	-2.091467E+0	2.845637E-2	1.900811E-2	-1.013887E+1	2.732853E-2	2.200605E-2	7.714242E-2	2.910311E-2
10/19/2017  17:40:02.801632	-3.598872E+0	5.561801E-3	3.173413E-2	-1.014142E+1	1.202884E-2	1.437409E-2	7.459952E-2	4.691052E-2
10/19/2017  17:40:02.802632	-2.724425E+0	1.319332E-2	1.137250E-2	-1.013632E+1	2.477858E-2	1.946206E-2	6.697081E-2	2.910311E-2
10/19/2017  17:40:02.803632	2.186715E+0	1.828100E-2	1.391770E-2	-1.015669E+1	2.222863E-2	2.709402E-2	7.205661E-2	2.401527E-2
10/19/2017  17:40:02.804632	2.768832E+0	1.319332E-2	2.664372E-2	-1.013378E+1	3.497837E-2	1.946206E-2	7.968532E-2	3.673486E-2
10/19/2017  17:40:02.805632	5.903402E-1	1.319332E-2	2.409852E-2	-1.011850E+1	1.967868E-2	1.946206E-2	7.459952E-2	3.419094E-2
10/19/2017  17:40:02.806632	-3.499119E-2	1.064948E-2	1.900811E-2	-1.014142E+1	9.478889E-3	1.946206E-2	6.697081E-2	2.401527E-2
10/19/2017  17:40:02.807632	-5.433907E-1	1.573716E-2	1.900811E-2	-1.014651E+1	1.712873E-2	1.691808E-2	6.697081E-2	2.910311E-2
10/19/2017  17:40:02.808632	-1.794054E+0	8.105642E-3	2.155331E-2	-1.013632E+1	1.967868E-2	1.691808E-2	7.459952E-2	4.691052E-2
10/19/2017  17:40:02.809632	-1.489014E+0	1.573716E-2	1.137250E-2	-1.012105E+1	2.987847E-2	2.455003E-2	7.205661E-2	2.401527E-2
10/19/2017  17:40:02.810632	-3.451149E-1	2.336868E-2	1.900811E-2	-1.014905E+1	1.457878E-2	2.455003E-2	7.205661E-2	2.401527E-2
10/19/2017  17:40:02.811632	3.818964E-1	8.105642E-3	2.664372E-2	-1.014905E+1	1.202884E-2	1.946206E-2	7.459952E-2	3.673486E-2
10/19/2017  17:40:02.812632	2.634106E+0	-4.613560E-3	1.646291E-2	-1.012614E+1	2.987847E-2	9.286120E-3	7.714242E-2	3.164702E-2
10/19/2017  17:40:02.813632	-1.112798E+0	1.828100E-2	2.155331E-2	-1.014396E+1	1.967868E-2	2.963800E-2	8.222822E-2	2.401527E-2
10/19/2017  17:40:02.814632	-2.274491E+0	1.828100E-2	1.900811E-2	-1.014905E+1	1.967868E-2	1.691808E-2	7.714242E-2	3.419094E-2
10/19/2017  17:40:02.815632	-6.043987E-1	4.741205E-4	1.137250E-2	-1.013378E+1	2.987847E-2	1.437409E-2	6.697081E-2	3.673486E-2
								
10/19/2017  17:40:02.816632	1.070778E+0	1.828100E-2	1.191689E-3	-1.014142E+1	1.712873E-2	3.726996E-2	6.951371E-2	2.401527E-2
10/19/2017  17:40:02.817632	-1.900530E-1	1.828100E-2	2.409852E-2	-1.013632E+1	1.967868E-2	2.455003E-2	7.714242E-2	2.910311E-2
10/19/2017  17:40:02.818632	-2.701547E+0	8.105642E-3	1.646291E-2	-1.013632E+1	2.477858E-2	2.709402E-2	7.459952E-2	4.436661E-2
10/19/2017  17:40:02.819632	-1.672038E+0	1.828100E-2	1.137250E-2	-1.013887E+1	2.477858E-2	2.455003E-2	6.442791E-2	3.164702E-2
10/19/2017  17:40:02.820632	-2.038085E+0	1.064948E-2	1.646291E-2	-1.013632E+1	2.222863E-2	1.437409E-2	7.205661E-2	2.401527E-2
10/19/2017  17:40:02.821632	2.097745E+0	8.105642E-3	1.900811E-2	-1.014905E+1	2.477858E-2	1.946206E-2	7.459952E-2	4.182269E-2
10/19/2017  17:40:02.822632	5.015958E+0	8.105642E-3	1.391770E-2	-1.011850E+1	2.222863E-2	2.200605E-2	7.205661E-2	3.164702E-2
10/19/2017  17:40:02.823632	5.005790E+0	5.561801E-3	2.155331E-2	-1.011850E+1	1.202884E-2	2.963800E-2	7.205661E-2	2.401527E-2
10/19/2017  17:40:02.824632	9.487619E-1	1.573716E-2	2.409852E-2	-1.013378E+1	1.202884E-2	1.437409E-2	8.222822E-2	3.164702E-2
10/19/2017  17:40:02.825632	-1.572900E+0	8.105642E-3	8.827299E-3	-1.012869E+1	4.007827E-2	1.183011E-2	7.205661E-2	3.673486E-2
10/19/2017  17:40:02.826632	-1.692374E+0	1.319332E-2	1.646291E-2	-1.015415E+1	2.732853E-2	1.946206E-2	6.697081E-2	2.401527E-2
10/19/2017  17:40:02.827632	-9.323164E-1	2.082484E-2	1.900811E-2	-1.015160E+1	1.457878E-2	2.963800E-2	7.205661E-2	3.673486E-2
10/19/2017  17:40:02.828632	-7.162466E-1	8.105642E-3	2.155331E-2	-1.014651E+1	1.712873E-2	9.286120E-3	7.205661E-2	3.927877E-2
10/19/2017  17:40:02.829632	1.810499E+0	4.741205E-4	1.137250E-2	-1.013632E+1	2.987847E-2	2.200605E-2	6.951371E-2	3.927877E-2
10/19/2017  17:40:02.830632	3.007780E+0	1.828100E-2	1.646291E-2	-1.012614E+1	2.477858E-2	3.726996E-2	7.205661E-2	3.164702E-2
10/19/2017  17:40:02.831632	6.386382E-1	1.319332E-2	2.155331E-2	-1.013123E+1	1.712873E-2	1.946206E-2	7.714242E-2	3.164702E-2
10/19/2017  17:40:02.832632	4.657824E-1	1.064948E-2	1.900811E-2	-1.012614E+1	2.222863E-2	9.286120E-3	6.951371E-2	3.164702E-2
10/19/2017  17:40:02.833632	-5.510167E-1	4.741205E-4	1.391770E-2	-1.013887E+1	2.477858E-2	2.709402E-2	6.697081E-2	3.164702E-2
10/19/2017  17:40:02.834632	-2.320247E+0	2.082484E-2	1.900811E-2	-1.014396E+1	2.222863E-2	2.709402E-2	8.731403E-2	2.401527E-2
10/19/2017  17:40:02.835632	-9.526524E-1	1.573716E-2	3.173413E-2	-1.014142E+1	2.222863E-2	2.200605E-2	7.968532E-2	3.419094E-2
10/19/2017  17:40:02.836632	9.411359E-1	4.741205E-4	1.900811E-2	-1.013887E+1	1.967868E-2	1.437409E-2	7.205661E-2	3.419094E-2
10/19/2017  17:40:02.837632	1.139412E+0	1.319332E-2	6.282096E-3	-1.013378E+1	1.967868E-2	1.437409E-2	6.697081E-2	3.164702E-2
10/19/2017  17:40:02.838632	2.247723E+0	2.591253E-2	1.900811E-2	-1.013632E+1	2.477858E-2	2.963800E-2	7.459952E-2	2.147136E-2
10/19/2017  17:40:02.839632	-3.349469E-1	1.064948E-2	2.409852E-2	-1.013887E+1	1.457878E-2	1.691808E-2	8.222822E-2	3.419094E-2
10/19/2017  17:40:02.840632	-1.613572E+0	-4.613560E-3	1.900811E-2	-1.012869E+1	1.457878E-2	1.183011E-2	6.951371E-2	3.164702E-2
10/19/2017  17:40:02.841632	-2.259239E+0	1.064948E-2	8.827299E-3	-1.014142E+1	2.477858E-2	1.437409E-2	7.205661E-2	2.147136E-2
10/19/2017  17:40:02.842632	-3.832449E-1	2.845637E-2	1.900811E-2	-1.013123E+1	3.242842E-2	2.200605E-2	7.459952E-2	3.164702E-2
10/19/2017  17:40:02.843632	1.309726E+0	1.319332E-2	2.664372E-2	-1.013378E+1	1.967868E-2	2.200605E-2	7.968532E-2	2.655919E-2
10/19/2017  17:40:02.844632	4.052541E+0	5.561801E-3	1.900811E-2	-1.014651E+1	2.732853E-2	2.455003E-2	7.714242E-2	2.401527E-2
10/19/2017  17:40:02.845632	-1.976790E-1	1.319332E-2	2.155331E-2	-1.014142E+1	2.222863E-2	2.200605E-2	7.459952E-2	2.401527E-2
10/19/2017  17:40:02.846632	-4.460609E+0	1.319332E-2	1.900811E-2	-1.014905E+1	1.712873E-2	2.200605E-2	8.731403E-2	3.419094E-2
10/19/2017  17:40:02.847632	-3.855614E+0	3.017961E-3	2.664372E-2	-1.014142E+1	1.457878E-2	1.437409E-2	8.222822E-2	3.673486E-2
10/19/2017  17:40:02.848632	3.742417E+0	8.105642E-3	1.137250E-2	-1.012614E+1	9.478889E-3	1.691808E-2	6.442791E-2	2.655919E-2
								
10/19/2017  17:40:02.849632	2.130791E+0	2.082484E-2	1.137250E-2	-1.013887E+1	2.732853E-2	2.455003E-2	6.188501E-2	2.401527E-2
10/19/2017  17:40:02.850632	-1.989787E+0	1.573716E-2	2.664372E-2	-1.014396E+1	1.967868E-2	2.963800E-2	8.222822E-2	4.691052E-2
10/19/2017  17:40:02.851632	-8.763924E-1	3.017961E-3	2.664372E-2	-1.012105E+1	1.457878E-2	1.691808E-2	8.731403E-2	3.419094E-2
10/19/2017  17:40:02.852632	-1.537312E+0	1.573716E-2	6.282096E-3	-1.013632E+1	2.477858E-2	1.946206E-2	6.697081E-2	2.910311E-2
10/19/2017  17:40:02.853632	1.891843E+0	1.828100E-2	1.900811E-2	-1.016178E+1	2.222863E-2	2.709402E-2	6.697081E-2	2.655919E-2
10/19/2017  17:40:02.854632	2.560388E+0	1.064948E-2	2.918892E-2	-1.013632E+1	2.222863E-2	2.709402E-2	7.968532E-2	3.419094E-2
10/19/2017  17:40:02.855632	-4.946131E+0	5.561801E-3	1.900811E-2	-1.013632E+1	2.477858E-2	1.437409E-2	7.714242E-2	3.164702E-2
10/19/2017  17:40:02.856632	-4.913085E+0	1.319332E-2	8.827299E-3	-1.015160E+1	1.967868E-2	1.946206E-2	7.459952E-2	3.419094E-2
10/19/2017  17:40:02.857632	6.945622E-1	1.573716E-2	1.646291E-2	-1.015415E+1	2.222863E-2	2.200605E-2	6.697081E-2	2.655919E-2
10/19/2017  17:40:02.858632	2.079951E+0	1.064948E-2	2.155331E-2	-1.012869E+1	9.478889E-3	1.946206E-2	8.222822E-2	3.927877E-2
10/19/2017  17:40:02.859632	1.419031E+0	1.319332E-2	1.137250E-2	-1.012105E+1	2.477858E-2	1.437409E-2	6.697081E-2	3.927877E-2
10/19/2017  17:40:02.860632	-2.162643E+0	1.828100E-2	1.137250E-2	-1.014142E+1	3.497837E-2	1.437409E-2	6.697081E-2	2.401527E-2
10/19/2017  17:40:02.861632	-4.930879E+0	1.064948E-2	2.664372E-2	-1.015415E+1	1.457878E-2	2.709402E-2	8.222822E-2	1.892744E-2
10/19/2017  17:40:02.862632	2.049447E+0	1.064948E-2	2.409852E-2	-1.012869E+1	1.457878E-2	1.183011E-2	8.222822E-2	2.401527E-2
10/19/2017  17:40:02.863632	5.003248E+0	1.828100E-2	1.391770E-2	-1.012869E+1	2.987847E-2	1.183011E-2	6.442791E-2	3.673486E-2
10/19/2017  17:40:02.864632	2.740870E+0	1.319332E-2	1.391770E-2	-1.013632E+1	2.987847E-2	1.946206E-2	6.951371E-2	2.655919E-2
10/19/2017  17:40:02.865632	3.110075E-2	4.741205E-4	1.900811E-2	-1.014396E+1	1.457878E-2	3.218199E-2	7.205661E-2	2.401527E-2
10/19/2017  17:40:02.866632	1.607426E-1	1.319332E-2	2.155331E-2	-1.013378E+1	1.712873E-2	1.946206E-2	7.968532E-2	3.164702E-2
10/19/2017  17:40:02.867632	2.392617E+0	1.064948E-2	1.900811E-2	-1.013632E+1	4.007827E-2	2.709402E-2	7.968532E-2	4.182269E-2
10/19/2017  17:40:02.868632	9.868919E-1	1.064948E-2	1.900811E-2	-1.013378E+1	2.222863E-2	1.946206E-2	7.968532E-2	3.164702E-2
10/19/2017  17:40:02.869632	4.606984E-1	1.064948E-2	1.646291E-2	-1.013887E+1	9.478889E-3	2.200605E-2	6.951371E-2	2.910311E-2
10/19/2017  17:40:02.870632	1.218214E+0	1.828100E-2	8.827299E-3	-1.015415E+1	2.477858E-2	2.455003E-2	7.205661E-2	2.655919E-2
10/19/2017  17:40:02.871632	6.818522E-1	1.064948E-2	2.918892E-2	-1.014142E+1	1.712873E-2	2.455003E-2	7.459952E-2	3.927877E-2
10/19/2017  17:40:02.872632	2.583266E+0	5.561801E-3	2.664372E-2	-1.012869E+1	2.222863E-2	1.946206E-2	6.951371E-2	3.927877E-2
10/19/2017  17:40:02.873632	4.108465E+0	1.064948E-2	8.827299E-3	-1.013123E+1	2.732853E-2	1.946206E-2	6.951371E-2	2.401527E-2
10/19/2017  17:40:02.874632	1.124447E-1	1.828100E-2	2.155331E-2	-1.015669E+1	2.477858E-2	1.691808E-2	7.459952E-2	2.655919E-2
10/19/2017  17:40:02.875632	-2.693921E+0	1.319332E-2	3.427933E-2	-1.014142E+1	1.457878E-2	2.709402E-2	7.968532E-2	3.673486E-2
10/19/2017  17:40:02.876632	-1.486472E+0	8.105642E-3	1.900811E-2	-1.013378E+1	2.222863E-2	2.963800E-2	7.968532E-2	3.419094E-2
10/19/2017  17:40:02.877632	3.572104E+0	1.064948E-2	6.282096E-3	-1.014396E+1	2.987847E-2	1.437409E-2	7.205661E-2	2.910311E-2
10/19/2017  17:40:02.878632	4.972744E+0	1.319332E-2	1.900811E-2	-1.014142E+1	1.967868E-2	2.963800E-2	6.442791E-2	2.147136E-2
10/19/2017  17:40:02.879632	1.276680E+0	1.319332E-2	3.173413E-2	-1.013632E+1	1.457878E-2	2.709402E-2	8.222822E-2	3.419094E-2
10/19/2017  17:40:02.880632	-4.506365E+0	3.017961E-3	1.900811E-2	-1.014142E+1	2.732853E-2	1.691808E-2	7.205661E-2	3.673486E-2
10/19/2017  17:40:02.881632	-7.391246E-1	1.064948E-2	-1.353514E-3	-1.014142E+1	2.732853E-2	9.286120E-3	6.951371E-2	2.401527E-2
								
10/19/2017  17:40:02.882632	-3.413306E+0	2.336868E-2	1.646291E-2	-1.015669E+1	2.477858E-2	2.963800E-2	7.459952E-2	2.910311E-2
10/19/2017  17:40:02.883632	-8.458885E-1	1.064948E-2	2.918892E-2	-1.013123E+1	1.712873E-2	3.981394E-2	7.968532E-2	3.164702E-2
10/19/2017  17:40:02.884632	1.434283E+0	2.082484E-2	2.155331E-2	-1.012614E+1	2.477858E-2	1.691808E-2	7.714242E-2	3.927877E-2
10/19/2017  17:40:02.885632	4.390627E+0	1.319332E-2	1.137250E-2	-1.013123E+1	2.477858E-2	2.200605E-2	6.697081E-2	3.419094E-2
10/19/2017  17:40:02.886632	2.288395E+0	3.017961E-3	1.646291E-2	-1.015160E+1	1.457878E-2	2.455003E-2	7.968532E-2	1.892744E-2
10/19/2017  17:40:02.887632	-1.496640E+0	1.064948E-2	2.155331E-2	-1.014142E+1	1.457878E-2	2.200605E-2	7.968532E-2	3.927877E-2
10/19/2017  17:40:02.888632	-4.913085E+0	1.064948E-2	1.900811E-2	-1.014142E+1	3.242842E-2	1.437409E-2	6.697081E-2	4.182269E-2
10/19/2017  17:40:02.889632	-1.580526E+0	1.319332E-2	1.391770E-2	-1.015415E+1	2.987847E-2	2.200605E-2	6.697081E-2	2.910311E-2
10/19/2017  17:40:02.890632	1.741865E+0	1.573716E-2	1.900811E-2	-1.014651E+1	2.987847E-2	2.963800E-2	6.951371E-2	1.892744E-2
10/19/2017  17:40:02.891632	2.855876E-2	1.319332E-2	1.900811E-2	-1.013123E+1	1.457878E-2	2.709402E-2	8.222822E-2	4.182269E-2
10/19/2017  17:40:02.892632	1.073607E-1	1.064948E-2	2.155331E-2	-1.013123E+1	2.222863E-2	1.691808E-2	7.714242E-2	5.199836E-2
10/19/2017  17:40:02.893632	-5.278517E-2	1.828100E-2	1.391770E-2	-1.012869E+1	2.477858E-2	2.455003E-2	6.697081E-2	2.401527E-2
10/19/2017  17:40:02.894632	-2.891910E-1	1.319332E-2	2.155331E-2	-1.014905E+1	1.457878E-2	1.946206E-2	7.968532E-2	2.401527E-2
10/19/2017  17:40:02.895632	-4.569628E-1	1.064948E-2	2.155331E-2	-1.013887E+1	1.712873E-2	1.946206E-2	7.459952E-2	3.673486E-2
10/19/2017  17:40:02.896632	2.954685E-1	1.064948E-2	1.137250E-2	-1.013378E+1	3.242842E-2	1.946206E-2	6.442791E-2	3.927877E-2
10/19/2017  17:40:02.897632	1.175000E+0	1.828100E-2	8.827299E-3	-1.015669E+1	2.987847E-2	2.455003E-2	6.697081E-2	2.401527E-2
10/19/2017  17:40:02.898632	8.699600E-1	5.561801E-3	1.900811E-2	-1.013632E+1	1.202884E-2	2.200605E-2	8.222822E-2	2.655919E-2
10/19/2017  17:40:02.899632	-1.341291E-1	1.319332E-2	1.391770E-2	-1.013632E+1	2.477858E-2	1.691808E-2	7.714242E-2	3.927877E-2
10/19/2017  17:40:02.900632	-1.138218E+0	1.319332E-2	3.173413E-2	-1.013887E+1	3.242842E-2	2.455003E-2	6.951371E-2	2.401527E-2
10/19/2017  17:40:02.901632	8.496240E-1	1.828100E-2	1.900811E-2	-1.014142E+1	1.712873E-2	2.963800E-2	7.205661E-2	2.147136E-2
10/19/2017  17:40:02.902632	1.406322E+0	1.064948E-2	2.409852E-2	-1.013887E+1	1.712873E-2	9.286120E-3	8.477112E-2	3.164702E-2
10/19/2017  17:40:02.903632	1.813041E+0	-2.069720E-3	2.155331E-2	-1.014651E+1	1.967868E-2	1.691808E-2	6.951371E-2	3.673486E-2
10/19/2017  17:40:02.904632	-5.230547E-1	1.573716E-2	1.391770E-2	-1.014142E+1	2.987847E-2	2.963800E-2	7.459952E-2	3.419094E-2
10/19/2017  17:40:02.905632	-1.191600E+0	2.082484E-2	1.900811E-2	-1.014396E+1	1.202884E-2	2.963800E-2	7.968532E-2	2.147136E-2
10/19/2017  17:40:02.906632	-1.407670E+0	8.105642E-3	2.409852E-2	-1.012869E+1	1.712873E-2	4.198150E-3	7.714242E-2	3.164702E-2
10/19/2017  17:40:02.907632	-2.355835E+0	-7.157401E-3	1.137250E-2	-1.014142E+1	1.712873E-2	1.691808E-2	7.205661E-2	3.927877E-2
10/19/2017  17:40:02.908632	1.159748E+0	1.319332E-2	1.391770E-2	-1.013632E+1	2.732853E-2	2.963800E-2	7.205661E-2	2.655919E-2
10/19/2017  17:40:02.909632	4.555857E+0	1.319332E-2	2.155331E-2	-1.012614E+1	3.752832E-2	2.200605E-2	7.968532E-2	2.910311E-2
10/19/2017  17:40:02.910632	2.306189E+0	1.319332E-2	1.391770E-2	-1.013378E+1	1.712873E-2	1.946206E-2	7.459952E-2	3.164702E-2
10/19/2017  17:40:02.911632	7.098141E-1	3.017961E-3	1.646291E-2	-1.012869E+1	2.477858E-2	9.286120E-3	6.697081E-2	2.910311E-2
10/19/2017  17:40:02.912632	8.956670E-2	2.082484E-2	6.282096E-3	-1.013632E+1	2.987847E-2	3.218199E-2	6.951371E-2	3.164702E-2
10/19/2017  17:40:02.913632	-2.165185E+0	1.319332E-2	1.646291E-2	-1.014142E+1	1.967868E-2	1.946206E-2	7.714242E-2	2.401527E-2
10/19/2017  17:40:02.914632	-4.325883E+0	1.064948E-2	1.391770E-2	-1.015669E+1	1.967868E-2	2.200605E-2	7.714242E-2	3.419094E-2
								
10/19/2017  17:40:02.915632	-7.820515E-2	1.319332E-2	1.900811E-2	-1.014396E+1	1.967868E-2	1.183011E-2	7.205661E-2	4.182269E-2
10/19/2017  17:40:02.916632	2.227387E+0	1.828100E-2	1.137250E-2	-1.011596E+1	3.242842E-2	3.218199E-2	7.459952E-2	2.655919E-2
10/19/2017  17:40:02.917632	1.919805E+0	2.082484E-2	2.664372E-2	-1.013632E+1	2.732853E-2	2.709402E-2	7.968532E-2	2.655919E-2
10/19/2017  17:40:02.918632	1.324978E+0	5.561801E-3	2.155331E-2	-1.013632E+1	1.202884E-2	4.198150E-3	7.714242E-2	4.182269E-2
10/19/2017  17:40:02.919632	-4.391688E-1	-4.613560E-3	1.646291E-2	-1.012869E+1	1.712873E-2	9.286120E-3	7.205661E-2	3.673486E-2
10/19/2017  17:40:02.920632	-2.457515E+0	1.319332E-2	1.137250E-2	-1.014142E+1	2.987847E-2	1.946206E-2	6.442791E-2	3.164702E-2
10/19/2017  17:40:02.921632	-4.544208E-1	2.845637E-2	2.664372E-2	-1.014396E+1	2.732853E-2	2.455003E-2	7.714242E-2	3.164702E-2
10/19/2017  17:40:02.922632	4.985454E+0	1.064948E-2	2.409852E-2	-1.013123E+1	1.457878E-2	2.200605E-2	7.459952E-2	3.419094E-2
10/19/2017  17:40:02.923632	4.993080E+0	5.561801E-3	1.137250E-2	-1.012105E+1	1.457878E-2	1.946206E-2	7.459952E-2	3.164702E-2
10/19/2017  17:40:02.924632	-4.946131E+0	1.828100E-2	1.137250E-2	-1.014396E+1	2.987847E-2	2.963800E-2	7.205661E-2	2.401527E-2
10/19/2017  17:40:02.925632	-4.941047E+0	2.082484E-2	1.900811E-2	-1.015669E+1	2.477858E-2	3.981394E-2	7.459952E-2	3.419094E-2
10/19/2017  17:40:02.926632	-3.392970E+0	1.064948E-2	2.409852E-2	-1.014142E+1	9.478889E-3	1.946206E-2	7.714242E-2	3.673486E-2
10/19/2017  17:40:02.927632	4.381074E-2	8.105642E-3	1.900811E-2	-1.013378E+1	1.967868E-2	-8.898203E-4	7.205661E-2	2.655919E-2
10/19/2017  17:40:02.928632	-7.645445E-1	5.561801E-3	1.137250E-2	-1.014651E+1	2.732853E-2	2.200605E-2	6.951371E-2	3.164702E-2
10/19/2017  17:40:02.929632	-3.054884E+0	1.319332E-2	1.900811E-2	-1.014142E+1	2.222863E-2	1.946206E-2	6.951371E-2	3.419094E-2
10/19/2017  17:40:02.930632	-2.439721E+0	1.319332E-2	1.900811E-2	-1.014142E+1	1.457878E-2	2.200605E-2	7.205661E-2	3.673486E-2
10/19/2017  17:40:02.931632	-2.228735E+0	1.319332E-2	1.646291E-2	-1.013887E+1	2.222863E-2	1.691808E-2	6.951371E-2	3.164702E-2
10/19/2017  17:40:02.932632	-4.938505E+0	2.082484E-2	1.137250E-2	-1.014651E+1	2.222863E-2	2.963800E-2	6.442791E-2	2.655919E-2
10/19/2017  17:40:02.933632	-4.206409E+0	1.828100E-2	3.173413E-2	-1.014396E+1	1.457878E-2	2.200605E-2	7.714242E-2	2.910311E-2
10/19/2017  17:40:02.934632	9.719269E-2	8.105642E-3	1.900811E-2	-1.013632E+1	1.712873E-2	1.437409E-2	7.714242E-2	2.910311E-2
10/19/2017  17:40:02.935632	-3.047258E+0	1.319332E-2	3.736893E-3	-1.014651E+1	2.987847E-2	1.691808E-2	6.697081E-2	3.164702E-2
10/19/2017  17:40:02.936632	-4.946131E+0	2.082484E-2	2.155331E-2	-1.015160E+1	2.222863E-2	2.200605E-2	7.205661E-2	4.436661E-2
10/19/2017  17:40:02.937632	-4.951215E+0	1.573716E-2	2.409852E-2	-1.013378E+1	1.967868E-2	2.963800E-2	8.731403E-2	3.164702E-2
10/19/2017  17:40:02.938632	2.179089E+0	1.064948E-2	1.391770E-2	-1.013632E+1	2.477858E-2	2.200605E-2	7.205661E-2	2.401527E-2
10/19/2017  17:40:02.939632	5.318743E-1	1.064948E-2	2.155331E-2	-1.015160E+1	2.477858E-2	2.200605E-2	6.188501E-2	2.401527E-2
10/19/2017  17:40:02.940632	-2.221109E+0	1.319332E-2	2.918892E-2	-1.014142E+1	1.967868E-2	2.963800E-2	8.222822E-2	3.419094E-2
10/19/2017  17:40:02.941632	5.547523E-1	5.561801E-3	2.409852E-2	-1.013632E+1	1.712873E-2	2.200605E-2	7.459952E-2	3.673486E-2
10/19/2017  17:40:02.942632	3.015406E+0	8.105642E-3	2.664372E-2	-1.013378E+1	2.732853E-2	2.200605E-2	7.205661E-2	2.655919E-2
10/19/2017  17:40:02.943632	5.013416E+0	5.561801E-3	1.900811E-2	-1.012614E+1	2.222863E-2	2.200605E-2	6.697081E-2	2.401527E-2
10/19/2017  17:40:02.944632	5.005790E+0	1.828100E-2	8.827299E-3	-1.013123E+1	1.202884E-2	2.963800E-2	7.459952E-2	3.419094E-2
10/19/2017  17:40:02.945632	5.010874E+0	1.828100E-2	1.900811E-2	-1.013123E+1	1.967868E-2	1.946206E-2	8.222822E-2	3.419094E-2
10/19/2017  17:40:02.946632	3.907647E+0	5.561801E-3	1.191689E-3	-1.012869E+1	2.222863E-2	1.946206E-2	6.697081E-2	2.655919E-2
10/19/2017  17:40:02.947632	-3.606498E+0	1.828100E-2	1.137250E-2	-1.015160E+1	2.477858E-2	2.709402E-2	6.188501E-2	2.401527E-2
								
10/19/2017  17:40:02.948632	-3.489566E+0	1.319332E-2	2.155331E-2	-1.015160E+1	1.457878E-2	3.726996E-2	7.968532E-2	3.927877E-2
10/19/2017  17:40:02.949632	-4.920711E+0	1.828100E-2	1.900811E-2	-1.014142E+1	2.222863E-2	1.691808E-2	7.459952E-2	3.673486E-2
10/19/2017  17:40:02.950632	-3.095269E-1	1.064948E-2	1.391770E-2	-1.014396E+1	2.477858E-2	1.946206E-2	6.697081E-2	3.164702E-2
10/19/2017  17:40:02.951632	6.920202E-1	1.573716E-2	1.900811E-2	-1.013632E+1	1.457878E-2	2.709402E-2	7.205661E-2	2.910311E-2
10/19/2017  17:40:02.952632	-2.358377E+0	1.319332E-2	2.155331E-2	-1.013887E+1	1.967868E-2	1.946206E-2	7.714242E-2	2.910311E-2
10/19/2017  17:40:02.953632	1.909637E+0	1.064948E-2	1.137250E-2	-1.012869E+1	4.517816E-2	1.946206E-2	7.205661E-2	3.927877E-2
10/19/2017  17:40:02.954632	5.021042E+0	1.828100E-2	1.900811E-2	-1.013632E+1	2.732853E-2	2.709402E-2	6.951371E-2	2.655919E-2
10/19/2017  17:40:02.955632	5.318743E-1	2.082484E-2	1.646291E-2	-1.013632E+1	1.457878E-2	2.709402E-2	7.205661E-2	3.673486E-2
10/19/2017  17:40:02.956632	1.622391E+0	1.064948E-2	2.155331E-2	-1.014142E+1	1.457878E-2	1.946206E-2	7.459952E-2	3.164702E-2
10/19/2017  17:40:02.957632	1.957935E+0	8.105642E-3	2.155331E-2	-1.013378E+1	2.477858E-2	1.691808E-2	7.459952E-2	5.454227E-2
10/19/2017  17:40:02.958632	3.015406E+0	1.064948E-2	1.391770E-2	-1.011341E+1	2.732853E-2	2.963800E-2	7.205661E-2	3.164702E-2
10/19/2017  17:40:02.959632	2.235013E+0	2.082484E-2	1.391770E-2	-1.014651E+1	2.222863E-2	2.200605E-2	7.459952E-2	2.147136E-2
10/19/2017  17:40:02.960632	2.601060E+0	1.319332E-2	2.409852E-2	-1.014905E+1	1.457878E-2	9.286120E-3	7.459952E-2	3.164702E-2
10/19/2017  17:40:02.961632	1.543589E+0	3.017961E-3	1.900811E-2	-1.012869E+1	2.222863E-2	2.200605E-2	6.951371E-2	3.927877E-2
10/19/2017  17:40:02.962632	2.509549E+0	1.319332E-2	1.137250E-2	-1.013378E+1	2.732853E-2	2.709402E-2	7.968532E-2	2.910311E-2
10/19/2017  17:40:02.963632	2.580724E+0	2.082484E-2	2.155331E-2	-1.013887E+1	2.222863E-2	2.455003E-2	7.205661E-2	2.401527E-2
10/19/2017  17:40:02.964632	8.191200E-1	1.064948E-2	2.664372E-2	-1.013887E+1	2.222863E-2	2.200605E-2	8.477112E-2	3.673486E-2
10/19/2017  17:40:02.965632	5.674623E-1	1.319332E-2	2.918892E-2	-1.013632E+1	1.457878E-2	2.455003E-2	7.205661E-2	3.419094E-2
10/19/2017  17:40:02.966632	1.048187E-1	1.828100E-2	2.155331E-2	-1.013378E+1	3.242842E-2	2.963800E-2	6.951371E-2	2.147136E-2
10/19/2017  17:40:02.967632	1.485123E+0	1.828100E-2	1.137250E-2	-1.014142E+1	6.928941E-3	3.218199E-2	7.968532E-2	2.147136E-2
10/19/2017  17:40:02.968632	-4.518788E-1	3.017961E-3	2.409852E-2	-1.013123E+1	1.457878E-2	1.437409E-2	7.459952E-2	3.673486E-2
10/19/2017  17:40:02.969632	-2.841070E-1	1.064948E-2	1.391770E-2	-1.013632E+1	2.732853E-2	2.455003E-2	6.951371E-2	3.164702E-2
10/19/2017  17:40:02.970632	-3.019009E-1	3.354405E-2	1.646291E-2	-1.013632E+1	2.732853E-2	2.963800E-2	7.714242E-2	2.910311E-2
10/19/2017  17:40:02.971632	-2.154730E-1	1.319332E-2	2.664372E-2	-1.013887E+1	1.712873E-2	1.946206E-2	7.968532E-2	3.419094E-2
10/19/2017  17:40:02.972632	-5.916887E-1	-2.069720E-3	1.391770E-2	-1.012869E+1	1.457878E-2	2.455003E-2	7.205661E-2	3.419094E-2
10/19/2017  17:40:02.973632	-5.789787E-1	1.064948E-2	8.827299E-3	-1.013632E+1	2.222863E-2	1.946206E-2	7.205661E-2	2.655919E-2
10/19/2017  17:40:02.974632	-3.095269E-1	2.082484E-2	2.409852E-2	-1.014142E+1	1.712873E-2	2.963800E-2	8.477112E-2	3.164702E-2
10/19/2017  17:40:02.975632	-2.332670E-1	5.561801E-3	3.173413E-2	-1.014142E+1	1.457878E-2	9.286120E-3	8.477112E-2	3.927877E-2
10/19/2017  17:40:02.976632	-4.061229E-1	3.017961E-3	1.137250E-2	-1.013378E+1	1.457878E-2	2.455003E-2	5.679920E-2	2.147136E-2
10/19/2017  17:40:02.977632	-1.773431E-1	1.828100E-2	6.282096E-3	-1.014142E+1	2.732853E-2	2.963800E-2	7.714242E-2	2.655919E-2
10/19/2017  17:40:02.978632	-5.738947E-1	1.828100E-2	2.664372E-2	-1.014651E+1	1.457878E-2	2.709402E-2	9.239983E-2	4.182269E-2
10/19/2017  17:40:02.979632	5.115383E-1	1.319332E-2	1.900811E-2	-1.011850E+1	2.477858E-2	2.963800E-2	7.205661E-2	3.419094E-2
10/19/2017  17:40:02.980632	3.302652E+0	5.561801E-3	1.391770E-2	-1.013378E+1	2.477858E-2	2.455003E-2	6.951371E-2	2.910311E-2
								
10/19/2017  17:40:02.981632	1.721529E+0	1.319332E-2	1.900811E-2	-1.014651E+1	1.967868E-2	1.691808E-2	7.968532E-2	2.147136E-2
10/19/2017  17:40:02.982632	-1.359372E+0	1.319332E-2	1.900811E-2	-1.014651E+1	1.712873E-2	2.200605E-2	8.222822E-2	3.419094E-2
10/19/2017  17:40:02.983632	-5.586427E-1	3.017961E-3	1.900811E-2	-1.013632E+1	1.967868E-2	2.455003E-2	6.697081E-2	3.927877E-2
10/19/2017  17:40:02.984632	-2.566821E+0	3.017961E-3	3.736893E-3	-1.014651E+1	1.712873E-2	1.183011E-2	6.951371E-2	2.147136E-2
10/19/2017  17:40:02.985632	-4.946131E+0	2.082484E-2	1.137250E-2	-1.015924E+1	2.222863E-2	2.963800E-2	6.442791E-2	2.401527E-2
10/19/2017  17:40:02.986632	-4.948673E+0	1.319332E-2	2.918892E-2	-1.015415E+1	1.457878E-2	2.200605E-2	7.968532E-2	3.927877E-2
10/19/2017  17:40:02.987632	4.962863E-1	1.064948E-2	1.646291E-2	-1.013632E+1	2.477858E-2	1.691808E-2	7.459952E-2	3.164702E-2
10/19/2017  17:40:02.988632	9.843499E-1	1.064948E-2	6.282096E-3	-1.013632E+1	3.242842E-2	9.286120E-3	6.951371E-2	2.910311E-2
10/19/2017  17:40:02.989632	5.000706E+0	2.082484E-2	1.900811E-2	-1.013632E+1	2.477858E-2	2.709402E-2	7.205661E-2	3.164702E-2
10/19/2017  17:40:02.990632	5.000706E+0	1.064948E-2	1.900811E-2	-1.013378E+1	2.987847E-2	3.981394E-2	8.222822E-2	2.910311E-2
10/19/2017  17:40:02.991632	9.589299E-1	2.082484E-2	1.900811E-2	-1.013887E+1	1.457878E-2	2.709402E-2	7.459952E-2	2.910311E-2
10/19/2017  17:40:02.992632	4.993080E+0	1.064948E-2	1.646291E-2	-1.013632E+1	2.222863E-2	2.455003E-2	7.205661E-2	1.892744E-2
10/19/2017  17:40:02.993632	-4.958841E+0	8.105642E-3	2.409852E-2	-1.017706E+1	1.457878E-2	1.691808E-2	7.968532E-2	3.164702E-2
10/19/2017  17:40:02.994632	-4.076768E+0	5.561801E-3	1.900811E-2	-1.013887E+1	2.222863E-2	1.946206E-2	7.205661E-2	3.673486E-2
10/19/2017  17:40:02.995632	-2.696463E+0	1.064948E-2	1.646291E-2	-1.013123E+1	2.477858E-2	1.691808E-2	6.951371E-2	3.164702E-2
10/19/2017  17:40:02.996632	-1.173806E+0	1.064948E-2	1.646291E-2	-1.013887E+1	2.222863E-2	1.946206E-2	7.968532E-2	2.401527E-2
10/19/2017  17:40:02.997632	-5.459327E-1	1.573716E-2	1.646291E-2	-1.013632E+1	9.478889E-3	2.455003E-2	6.951371E-2	3.673486E-2
10/19/2017  17:40:02.998632	4.022324E-1	1.319332E-2	2.664372E-2	-1.013632E+1	1.967868E-2	2.200605E-2	7.205661E-2	2.910311E-2
10/19/2017  17:40:02.999632	1.607139E+0	8.105642E-3	1.900811E-2	-1.013887E+1	2.222863E-2	1.691808E-2	7.968532E-2	2.147136E-2
10/19/2017  17:40:03.000632	1.342772E+0	1.064948E-2	1.391770E-2	-1.014142E+1	2.987847E-2	2.455003E-2	5.934210E-2	2.910311E-2
10/19/2017  17:40:03.001632	1.261428E+0	1.319332E-2	1.646291E-2	-1.013887E+1	1.712873E-2	2.963800E-2	6.951371E-2	4.182269E-2
10/19/2017  17:40:03.002632	1.175000E+0	1.319332E-2	2.664372E-2	-1.014905E+1	1.967868E-2	1.691808E-2	7.714242E-2	3.164702E-2
10/19/2017  17:40:03.003632	-6.882846E-1	1.573716E-2	2.409852E-2	-1.014142E+1	2.477858E-2	2.200605E-2	7.714242E-2	3.927877E-2
10/19/2017  17:40:03.004632	-2.096551E+0	1.319332E-2	1.646291E-2	-1.014396E+1	1.967868E-2	2.200605E-2	6.697081E-2	3.419094E-2
10/19/2017  17:40:03.005632	-3.273496E+0	5.561801E-3	8.827299E-3	-1.014651E+1	2.222863E-2	2.200605E-2	7.205661E-2	3.164702E-2
10/19/2017  17:40:03.006632	-4.724977E+0	1.828100E-2	1.900811E-2	-1.015160E+1	2.477858E-2	2.709402E-2	8.731403E-2	3.927877E-2
10/19/2017  17:40:03.007632	-2.358090E-1	2.082484E-2	3.936974E-2	-1.014396E+1	1.712873E-2	1.946206E-2	7.459952E-2	2.910311E-2
10/19/2017  17:40:03.008632	4.009327E+0	1.319332E-2	1.646291E-2	-1.013123E+1	2.222863E-2	2.963800E-2	6.697081E-2	2.401527E-2
10/19/2017  17:40:03.009632	1.124447E-1	1.828100E-2	2.409852E-2	-1.014396E+1	4.378993E-3	1.691808E-2	7.714242E-2	1.892744E-2
10/19/2017  17:40:03.010632	-2.350751E+0	1.319332E-2	2.409852E-2	-1.013632E+1	1.202884E-2	1.437409E-2	7.968532E-2	4.182269E-2
10/19/2017  17:40:03.011632	-4.950928E-1	1.064948E-2	1.137250E-2	-1.013378E+1	3.497837E-2	1.691808E-2	6.951371E-2	3.419094E-2
10/19/2017  17:40:03.012632	5.018500E+0	1.828100E-2	1.391770E-2	-1.013887E+1	3.242842E-2	2.200605E-2	6.951371E-2	3.164702E-2
10/19/2017  17:40:03.013632	4.606697E+0	1.064948E-2	1.391770E-2	-1.014142E+1	1.967868E-2	1.946206E-2	7.205661E-2	2.655919E-2
								
10/19/2017  17:40:03.014632	-4.333509E+0	2.082484E-2	1.391770E-2	-1.015415E+1	2.222863E-2	2.200605E-2	7.968532E-2	3.673486E-2
10/19/2017  17:40:03.015632	-4.468235E+0	5.561801E-3	2.409852E-2	-1.013887E+1	2.222863E-2	1.691808E-2	7.205661E-2	3.673486E-2
10/19/2017  17:40:03.016632	-1.672038E+0	1.064948E-2	8.827299E-3	-1.013887E+1	2.477858E-2	2.455003E-2	6.951371E-2	2.401527E-2
10/19/2017  17:40:03.017632	-3.985256E+0	2.082484E-2	1.391770E-2	-1.015669E+1	2.222863E-2	2.455003E-2	7.459952E-2	2.147136E-2
10/19/2017  17:40:03.018632	-3.164190E+0	1.319332E-2	2.664372E-2	-1.013632E+1	9.478889E-3	2.455003E-2	7.459952E-2	2.655919E-2
10/19/2017  17:40:03.019632	-3.400309E-1	1.064948E-2	2.155331E-2	-1.012359E+1	1.967868E-2	2.200605E-2	7.714242E-2	3.927877E-2
10/19/2017  17:40:03.020632	2.100287E+0	1.319332E-2	1.137250E-2	-1.013887E+1	2.987847E-2	2.200605E-2	7.459952E-2	3.927877E-2
10/19/2017  17:40:03.021632	3.971484E-1	2.082484E-2	1.391770E-2	-1.014905E+1	2.222863E-2	2.455003E-2	7.205661E-2	2.655919E-2
10/19/2017  17:40:03.022632	7.555701E-1	1.064948E-2	2.918892E-2	-1.013887E+1	1.457878E-2	1.946206E-2	8.222822E-2	4.436661E-2
10/19/2017  17:40:03.023632	5.003248E+0	5.561801E-3	1.900811E-2	-1.010323E+1	1.712873E-2	1.946206E-2	7.968532E-2	4.182269E-2
10/19/2017  17:40:03.024632	4.967660E+0	2.082484E-2	1.391770E-2	-1.013378E+1	2.987847E-2	2.709402E-2	6.951371E-2	2.147136E-2
10/19/2017  17:40:03.025632	-1.491556E+0	1.828100E-2	2.664372E-2	-1.014651E+1	1.457878E-2	2.709402E-2	7.205661E-2	3.164702E-2
10/19/2017  17:40:03.026632	-1.689832E+0	-4.613560E-3	1.900811E-2	-1.013378E+1	1.967868E-2	1.437409E-2	7.205661E-2	3.927877E-2
10/19/2017  17:40:03.027632	9.513039E-1	1.573716E-2	1.391770E-2	-1.014142E+1	2.987847E-2	1.946206E-2	7.459952E-2	3.164702E-2
10/19/2017  17:40:03.028632	7.250661E-1	3.100021E-2	3.173413E-2	-1.014142E+1	2.732853E-2	1.437409E-2	7.205661E-2	2.910311E-2
10/19/2017  17:40:03.029632	-1.056874E+0	1.064948E-2	1.900811E-2	-1.013378E+1	2.222863E-2	2.200605E-2	7.205661E-2	2.655919E-2
10/19/2017  17:40:03.030632	1.073607E-1	1.064948E-2	1.137250E-2	-1.013632E+1	2.222863E-2	9.286120E-3	6.951371E-2	2.910311E-2
10/19/2017  17:40:03.031632	2.115826E-1	2.082484E-2	1.137250E-2	-1.014142E+1	3.497837E-2	2.455003E-2	6.697081E-2	2.147136E-2
10/19/2017  17:40:03.032632	3.198430E+0	1.828100E-2	2.409852E-2	-1.014142E+1	2.222863E-2	1.691808E-2	7.205661E-2	3.673486E-2
10/19/2017  17:40:03.033632	4.949866E+0	-2.069720E-3	1.646291E-2	-1.012359E+1	1.712873E-2	1.437409E-2	7.205661E-2	3.673486E-2
10/19/2017  17:40:03.034632	-1.936405E+0	1.319332E-2	1.391770E-2	-1.013887E+1	2.732853E-2	4.198150E-3	6.442791E-2	2.147136E-2
10/19/2017  17:40:03.035632	-4.935963E+0	8.105642E-3	2.155331E-2	-1.016942E+1	1.967868E-2	2.963800E-2	7.205661E-2	3.419094E-2
10/19/2017  17:40:03.036632	-6.196507E-1	1.319332E-2	2.155331E-2	-1.014142E+1	2.477858E-2	2.455003E-2	7.459952E-2	3.673486E-2
10/19/2017  17:40:03.037632	4.980370E+0	1.064948E-2	1.137250E-2	-1.013123E+1	3.242842E-2	2.200605E-2	6.697081E-2	3.164702E-2
10/19/2017  17:40:03.038632	-1.394960E+0	1.828100E-2	1.646291E-2	-1.014396E+1	2.222863E-2	2.709402E-2	7.205661E-2	2.655919E-2
10/19/2017  17:40:03.039632	-4.933421E+0	1.064948E-2	2.918892E-2	-1.014142E+1	1.202884E-2	1.946206E-2	7.205661E-2	3.673486E-2
10/19/2017  17:40:03.040632	-3.380260E+0	1.064948E-2	1.391770E-2	-1.014651E+1	2.222863E-2	2.455003E-2	7.714242E-2	3.164702E-2
10/19/2017  17:40:03.041632	2.412953E+0	2.082484E-2	2.155331E-2	-1.014142E+1	2.222863E-2	2.455003E-2	7.968532E-2	2.401527E-2
10/19/2017  17:40:03.042632	4.993080E+0	8.105642E-3	2.155331E-2	-1.014142E+1	1.712873E-2	1.183011E-2	7.459952E-2	3.164702E-2
10/19/2017  17:40:03.043632	4.990538E+0	3.017961E-3	1.900811E-2	-1.012359E+1	3.242842E-2	1.691808E-2	7.459952E-2	2.910311E-2
10/19/2017  17:40:03.044632	1.266512E+0	1.319332E-2	1.137250E-2	-1.011596E+1	2.732853E-2	3.218199E-2	6.951371E-2	2.655919E-2
10/19/2017  17:40:03.045632	-4.458067E+0	2.845637E-2	2.155331E-2	-1.015160E+1	2.222863E-2	2.709402E-2	7.714242E-2	2.655919E-2
10/19/2017  17:40:03.046632	-4.366555E+0	8.105642E-3	2.409852E-2	-1.016433E+1	1.457878E-2	6.742135E-3	7.459952E-2	3.673486E-2
								
10/19/2017  17:40:03.047632	8.852120E-1	4.741205E-4	1.646291E-2	-1.013887E+1	2.732853E-2	2.455003E-2	6.697081E-2	2.910311E-2
10/19/2017  17:40:03.048632	4.980370E+0	2.082484E-2	1.646291E-2	-1.014142E+1	1.967868E-2	2.963800E-2	8.477112E-2	2.401527E-2
10/19/2017  17:40:03.049632	-3.105724E+0	1.064948E-2	2.918892E-2	-1.013632E+1	1.712873E-2	2.455003E-2	7.459952E-2	3.164702E-2
10/19/2017  17:40:03.050632	-3.273496E+0	3.017961E-3	1.137250E-2	-1.013378E+1	2.987847E-2	1.691808E-2	5.934210E-2	3.419094E-2
10/19/2017  17:40:03.051632	-7.029213E-3	2.336868E-2	8.827299E-3	-1.014142E+1	1.457878E-2	2.709402E-2	7.205661E-2	2.401527E-2
10/19/2017  17:40:03.052632	5.877982E-1	2.082484E-2	2.155331E-2	-1.013632E+1	1.712873E-2	1.946206E-2	8.222822E-2	3.164702E-2
10/19/2017  17:40:03.053632	3.717284E-1	8.105642E-3	2.155331E-2	-1.012614E+1	2.477858E-2	2.963800E-2	7.714242E-2	4.182269E-2
10/19/2017  17:40:03.054632	-1.130592E+0	1.064948E-2	1.391770E-2	-1.013632E+1	2.732853E-2	1.946206E-2	6.697081E-2	3.164702E-2
10/19/2017  17:40:03.055632	-1.442971E-1	2.336868E-2	2.664372E-2	-1.014651E+1	2.477858E-2	2.455003E-2	7.714242E-2	1.892744E-2
10/19/2017  17:40:03.056632	7.860741E-1	3.100021E-2	2.155331E-2	-1.014396E+1	2.222863E-2	1.946206E-2	7.968532E-2	3.673486E-2
10/19/2017  17:40:03.057632	5.750883E-1	5.561801E-3	1.900811E-2	-1.012614E+1	1.967868E-2	1.691808E-2	7.459952E-2	3.673486E-2
10/19/2017  17:40:03.058632	7.784481E-1	1.064948E-2	1.137250E-2	-1.013123E+1	2.732853E-2	2.455003E-2	6.951371E-2	2.401527E-2
10/19/2017  17:40:03.059632	7.911581E-1	1.828100E-2	2.409852E-2	-1.015160E+1	2.222863E-2	2.709402E-2	8.222822E-2	2.401527E-2
10/19/2017  17:40:03.060632	-8.535144E-1	8.105642E-3	2.664372E-2	-1.013123E+1	4.378993E-3	1.437409E-2	7.459952E-2	4.182269E-2
10/19/2017  17:40:03.061632	-3.039632E+0	8.105642E-3	1.391770E-2	-1.013632E+1	1.967868E-2	2.709402E-2	7.714242E-2	3.164702E-2
10/19/2017  17:40:03.062632	-2.208399E+0	2.082484E-2	1.900811E-2	-1.014905E+1	2.222863E-2	2.200605E-2	6.951371E-2	2.655919E-2
10/19/2017  17:40:03.063632	-4.770733E+0	1.064948E-2	1.900811E-2	-1.015924E+1	1.457878E-2	1.691808E-2	7.714242E-2	3.164702E-2
10/19/2017  17:40:03.064632	-4.877497E+0	4.741205E-4	1.137250E-2	-1.013887E+1	2.987847E-2	1.691808E-2	6.697081E-2	3.673486E-2
10/19/2017  17:40:03.065632	5.003248E+0	1.573716E-2	1.137250E-2	-1.012614E+1	2.987847E-2	3.218199E-2	7.205661E-2	2.401527E-2
10/19/2017  17:40:03.066632	3.597524E+0	1.828100E-2	1.900811E-2	-1.013632E+1	1.457878E-2	1.691808E-2	8.222822E-2	3.164702E-2
10/19/2017  17:40:03.067632	3.101834E+0	5.561801E-3	1.900811E-2	-1.012105E+1	1.967868E-2	1.691808E-2	6.442791E-2	3.673486E-2
10/19/2017  17:40:03.068632	5.010874E+0	8.105642E-3	3.736893E-3	-1.013632E+1	2.222863E-2	3.472597E-2	6.951371E-2	2.401527E-2
10/19/2017  17:40:03.069632	5.003248E+0	1.319332E-2	1.646291E-2	-1.012105E+1	2.477858E-2	2.200605E-2	6.697081E-2	3.164702E-2
10/19/2017  17:40:03.070632	1.190252E+0	8.105642E-3	3.173413E-2	-1.012869E+1	2.987847E-2	2.455003E-2	7.459952E-2	3.927877E-2
10/19/2017  17:40:03.071632	-2.129310E-1	8.105642E-3	1.137250E-2	-1.013378E+1	2.477858E-2	2.200605E-2	6.442791E-2	2.910311E-2
10/19/2017  17:40:03.072632	-4.008134E+0	1.828100E-2	6.282096E-3	-1.016178E+1	1.712873E-2	2.455003E-2	7.205661E-2	2.910311E-2
10/19/2017  17:40:03.073632	-2.874403E+0	1.064948E-2	1.900811E-2	-1.013887E+1	2.477858E-2	2.455003E-2	7.714242E-2	4.182269E-2
10/19/2017  17:40:03.074632	-3.497192E+0	1.319332E-2	1.391770E-2	-1.014905E+1	2.987847E-2	3.726996E-2	6.697081E-2	2.655919E-2
10/19/2017  17:40:03.075632	-4.941047E+0	2.336868E-2	1.900811E-2	-1.014651E+1	1.712873E-2	2.963800E-2	7.459952E-2	2.401527E-2
10/19/2017  17:40:03.076632	-4.956299E+0	1.319332E-2	2.155331E-2	-1.015415E+1	1.457878E-2	2.200605E-2	8.222822E-2	3.164702E-2
10/19/2017  17:40:03.077632	-4.897833E+0	2.082484E-2	1.900811E-2	-1.015669E+1	1.202884E-2	1.691808E-2	7.205661E-2	3.164702E-2
10/19/2017  17:40:03.078632	2.827298E+0	1.319332E-2	1.646291E-2	-1.013378E+1	2.222863E-2	2.455003E-2	7.205661E-2	2.655919E-2
10/19/2017  17:40:03.079632	5.000706E+0	1.828100E-2	1.900811E-2	-1.012869E+1	1.202884E-2	2.709402E-2	7.714242E-2	2.655919E-2
								
10/19/2017  17:40:03.080632	3.470424E+0	8.105642E-3	2.409852E-2	-1.011850E+1	1.457878E-2	1.946206E-2	7.714242E-2	3.164702E-2
10/19/2017  17:40:03.081632	2.573098E+0	4.741205E-4	1.646291E-2	-1.012359E+1	4.007827E-2	1.691808E-2	6.188501E-2	3.419094E-2
10/19/2017  17:40:03.082632	-1.949115E+0	1.573716E-2	1.900811E-2	-1.014142E+1	1.967868E-2	2.963800E-2	7.205661E-2	2.655919E-2
10/19/2017  17:40:03.083632	-1.234814E+0	1.064948E-2	2.155331E-2	-1.014142E+1	1.457878E-2	1.946206E-2	8.731403E-2	3.673486E-2
10/19/2017  17:40:03.084632	2.702740E+0	1.064948E-2	1.646291E-2	-1.014142E+1	2.477858E-2	1.691808E-2	6.951371E-2	3.927877E-2
10/19/2017  17:40:03.085632	1.993523E+0	3.017961E-3	2.155331E-2	-1.013378E+1	2.732853E-2	2.200605E-2	7.205661E-2	2.147136E-2
10/19/2017  17:40:03.086632	-1.214191E-1	2.082484E-2	1.900811E-2	-1.012105E+1	2.477858E-2	1.691808E-2	6.951371E-2	2.401527E-2
10/19/2017  17:40:03.087632	-6.196507E-1	1.319332E-2	2.664372E-2	-1.013123E+1	1.712873E-2	2.455003E-2	8.222822E-2	3.673486E-2
10/19/2017  17:40:03.088632	1.230924E+0	1.064948E-2	1.137250E-2	-1.014142E+1	2.732853E-2	1.946206E-2	6.188501E-2	3.164702E-2
10/19/2017  17:40:03.089632	2.458709E+0	1.064948E-2	1.646291E-2	-1.013887E+1	1.457878E-2	2.963800E-2	7.459952E-2	2.401527E-2
10/19/2017  17:40:03.090632	3.386825E-1	1.064948E-2	2.918892E-2	-1.013378E+1	2.222863E-2	1.437409E-2	7.459952E-2	3.927877E-2
10/19/2017  17:40:03.091632	7.733641E-1	8.105642E-3	2.155331E-2	-1.013123E+1	3.497837E-2	2.455003E-2	6.951371E-2	3.164702E-2
10/19/2017  17:40:03.092632	-2.103890E-1	1.319332E-2	1.900811E-2	-1.014651E+1	1.712873E-2	2.455003E-2	7.714242E-2	2.401527E-2
10/19/2017  17:40:03.093632	4.998164E+0	1.319332E-2	2.155331E-2	-1.013123E+1	6.928941E-3	1.183011E-2	8.477112E-2	3.164702E-2
10/19/2017  17:40:03.094632	3.254354E+0	-4.613560E-3	1.137250E-2	-1.013123E+1	1.967868E-2	1.691808E-2	6.951371E-2	3.927877E-2
10/19/2017  17:40:03.095632	2.862886E+0	2.082484E-2	1.646291E-2	-1.013632E+1	2.987847E-2	1.946206E-2	7.714242E-2	3.164702E-2
10/19/2017  17:40:03.096632	5.877982E-1	8.105642E-3	1.900811E-2	-1.013887E+1	2.732853E-2	2.963800E-2	7.968532E-2	2.401527E-2
10/19/2017  17:40:03.097632	-1.405128E+0	5.561801E-3	1.646291E-2	-1.013887E+1	1.967868E-2	-8.898203E-4	7.459952E-2	2.655919E-2
10/19/2017  17:40:03.098632	-4.933421E+0	1.573716E-2	1.137250E-2	-1.016687E+1	3.242842E-2	1.946206E-2	6.697081E-2	3.673486E-2
10/19/2017  17:40:03.099632	-4.902917E+0	1.573716E-2	1.900811E-2	-1.015669E+1	1.967868E-2	2.963800E-2	7.968532E-2	2.655919E-2
10/19/2017  17:40:03.100632	-1.532228E+0	8.105642E-3	2.409852E-2	-1.014651E+1	2.987847E-2	1.691808E-2	8.477112E-2	2.910311E-2
10/19/2017  17:40:03.101632	-1.331410E+0	8.105642E-3	1.137250E-2	-1.013378E+1	1.967868E-2	2.200605E-2	7.205661E-2	2.910311E-2
10/19/2017  17:40:03.102632	-3.959549E-1	1.828100E-2	1.137250E-2	-1.014396E+1	2.987847E-2	2.963800E-2	6.188501E-2	2.655919E-2
10/19/2017  17:40:03.103632	2.412953E+0	1.319332E-2	3.173413E-2	-1.013123E+1	1.457878E-2	2.709402E-2	8.477112E-2	3.673486E-2
10/19/2017  17:40:03.104632	1.993523E+0	8.105642E-3	1.900811E-2	-1.013378E+1	2.222863E-2	1.437409E-2	7.968532E-2	2.401527E-2
10/19/2017  17:40:03.105632	2.903558E+0	1.064948E-2	1.137250E-2	-1.013887E+1	2.987847E-2	1.946206E-2	7.459952E-2	3.164702E-2
10/19/2017  17:40:03.106632	-3.733598E+0	1.319332E-2	1.900811E-2	-1.014651E+1	1.712873E-2	2.455003E-2	7.459952E-2	4.182269E-2
10/19/2017  17:40:03.107632	-4.943589E+0	1.573716E-2	2.155331E-2	-1.015160E+1	2.222863E-2	1.437409E-2	7.714242E-2	3.164702E-2
10/19/2017  17:40:03.108632	-3.657338E+0	1.573716E-2	2.664372E-2	-1.015669E+1	2.222863E-2	1.946206E-2	7.205661E-2	3.164702E-2
10/19/2017  17:40:03.109632	1.136870E+0	1.064948E-2	1.900811E-2	-1.013887E+1	2.222863E-2	3.218199E-2	6.697081E-2	2.401527E-2
10/19/2017  17:40:03.110632	3.234018E+0	8.105642E-3	1.137250E-2	-1.013378E+1	1.712873E-2	1.946206E-2	7.459952E-2	2.910311E-2
10/19/2017  17:40:03.111632	2.862886E+0	8.105642E-3	1.900811E-2	-1.013378E+1	2.222863E-2	2.200605E-2	7.968532E-2	3.673486E-2
10/19/2017  17:40:03.112632	-3.898828E+0	2.082484E-2	1.646291E-2	-1.013887E+1	1.712873E-2	2.963800E-2	6.951371E-2	3.164702E-2
								
10/19/2017  17:40:03.113632	-4.636007E+0	1.319332E-2	1.900811E-2	-1.014651E+1	2.222863E-2	2.200605E-2	6.697081E-2	2.401527E-2
10/19/2017  17:40:03.114632	4.548231E+0	1.064948E-2	6.282096E-3	-1.013887E+1	1.967868E-2	2.709402E-2	7.459952E-2	2.910311E-2
10/19/2017  17:40:03.115632	1.708819E+0	8.105642E-3	1.900811E-2	-1.013632E+1	2.222863E-2	2.455003E-2	7.968532E-2	3.927877E-2
10/19/2017  17:40:03.116632	1.378647E-1	5.561801E-3	1.137250E-2	-1.013632E+1	3.497837E-2	2.963800E-2	6.951371E-2	3.419094E-2
10/19/2017  17:40:03.117632	2.763748E+0	1.064948E-2	1.137250E-2	-1.014142E+1	1.457878E-2	2.963800E-2	7.205661E-2	2.147136E-2
10/19/2017  17:40:03.118632	4.993080E+0	1.064948E-2	2.155331E-2	-1.013632E+1	1.457878E-2	9.286120E-3	8.222822E-2	2.401527E-2
10/19/2017  17:40:03.119632	5.008332E+0	-9.701241E-3	2.155331E-2	-1.013887E+1	1.712873E-2	1.437409E-2	7.205661E-2	3.419094E-2
10/19/2017  17:40:03.120632	4.716003E+0	1.064948E-2	1.900811E-2	-1.013123E+1	2.222863E-2	2.455003E-2	7.459952E-2	3.419094E-2
10/19/2017  17:40:03.121632	2.189257E+0	1.064948E-2	1.646291E-2	-1.013378E+1	3.242842E-2	2.455003E-2	7.968532E-2	2.910311E-2
10/19/2017  17:40:03.122632	-1.206852E+0	1.573716E-2	1.900811E-2	-1.014396E+1	2.222863E-2	1.946206E-2	7.714242E-2	3.927877E-2
10/19/2017  17:40:03.123632	-1.298364E+0	5.561801E-3	1.137250E-2	-1.013632E+1	4.517816E-2	1.691808E-2	6.697081E-2	3.673486E-2
10/19/2017  17:40:03.124632	-8.103005E-1	1.828100E-2	2.409852E-2	-1.013632E+1	2.222863E-2	3.218199E-2	7.714242E-2	2.655919E-2
10/19/2017  17:40:03.125632	-7.620025E-1	1.319332E-2	2.155331E-2	-1.013632E+1	1.457878E-2	1.946206E-2	6.697081E-2	3.419094E-2
10/19/2017  17:40:03.126632	5.852563E-1	5.561801E-3	2.155331E-2	-1.012869E+1	2.732853E-2	1.691808E-2	6.697081E-2	3.673486E-2
10/19/2017  17:40:03.127632	2.715450E+0	1.828100E-2	8.827299E-3	-1.014651E+1	2.477858E-2	2.709402E-2	6.951371E-2	2.147136E-2
10/19/2017  17:40:03.128632	2.473961E+0	1.319332E-2	2.409852E-2	-1.013123E+1	1.457878E-2	2.455003E-2	8.477112E-2	3.164702E-2
10/19/2017  17:40:03.129632	5.003248E+0	1.064948E-2	2.155331E-2	-1.012869E+1	2.477858E-2	9.286120E-3	7.459952E-2	3.927877E-2
10/19/2017  17:40:03.130632	-1.951370E-1	1.319332E-2	1.137250E-2	-1.014905E+1	2.477858E-2	1.946206E-2	6.188501E-2	3.164702E-2
10/19/2017  17:40:03.131632	-4.963925E+0	1.319332E-2	1.900811E-2	-1.014905E+1	1.457878E-2	2.709402E-2	7.714242E-2	3.164702E-2
10/19/2017  17:40:03.132632	3.874601E+0	1.828100E-2	1.646291E-2	-1.013887E+1	1.967868E-2	2.455003E-2	8.731403E-2	3.419094E-2
10/19/2017  17:40:03.133632	-4.895291E+0	1.319332E-2	1.391770E-2	-1.014651E+1	3.242842E-2	1.691808E-2	7.205661E-2	3.164702E-2
10/19/2017  17:40:03.134632	4.484681E+0	1.064948E-2	1.900811E-2	-1.013887E+1	1.712873E-2	2.455003E-2	7.205661E-2	2.401527E-2
10/19/2017  17:40:03.135632	4.703293E+0	1.319332E-2	1.900811E-2	-1.012869E+1	9.478889E-3	1.946206E-2	8.731403E-2	3.419094E-2
10/19/2017  17:40:03.136632	-1.496640E+0	4.741205E-4	1.391770E-2	-1.013378E+1	3.242842E-2	1.946206E-2	6.951371E-2	3.164702E-2
10/19/2017  17:40:03.137632	-1.984703E+0	2.082484E-2	1.900811E-2	-1.014142E+1	3.242842E-2	4.235793E-2	7.714242E-2	3.164702E-2
10/19/2017  17:40:03.138632	2.695114E+0	1.064948E-2	1.900811E-2	-1.013887E+1	2.222863E-2	2.455003E-2	7.459952E-2	2.910311E-2
10/19/2017  17:40:03.139632	2.118081E+0	1.319332E-2	1.646291E-2	-1.013123E+1	2.477858E-2	2.963800E-2	7.459952E-2	2.910311E-2
10/19/2017  17:40:03.140632	-7.187886E-1	4.117557E-2	1.391770E-2	-1.014651E+1	2.477858E-2	2.455003E-2	7.205661E-2	2.910311E-2
10/19/2017  17:40:03.141632	6.589742E-1	1.319332E-2	2.918892E-2	-1.012869E+1	1.457878E-2	1.437409E-2	7.968532E-2	4.691052E-2
10/19/2017  17:40:03.142632	3.386538E+0	8.105642E-3	1.391770E-2	-1.013378E+1	1.712873E-2	1.437409E-2	6.442791E-2	2.655919E-2
10/19/2017  17:40:03.143632	3.673783E+0	2.082484E-2	1.646291E-2	-1.014651E+1	2.477858E-2	2.455003E-2	7.459952E-2	2.401527E-2
10/19/2017  17:40:03.144632	3.742417E+0	5.561801E-3	2.664372E-2	-1.013887E+1	9.478889E-3	2.200605E-2	7.968532E-2	3.164702E-2
10/19/2017  17:40:03.145632	3.513638E+0	1.064948E-2	2.155331E-2	-1.013123E+1	2.477858E-2	1.946206E-2	7.459952E-2	2.910311E-2
								
10/19/2017  17:40:03.146632	1.086030E+0	2.082484E-2	1.391770E-2	-1.013887E+1	1.967868E-2	2.709402E-2	7.205661E-2	1.638352E-2
10/19/2017  17:40:03.147632	-1.097546E+0	1.319332E-2	1.900811E-2	-1.015669E+1	1.967868E-2	1.691808E-2	7.714242E-2	2.910311E-2
10/19/2017  17:40:03.148632	-2.513439E+0	5.561801E-3	1.137250E-2	-1.013887E+1	2.987847E-2	1.691808E-2	7.205661E-2	3.419094E-2
10/19/2017  17:40:03.149632	-4.007518E-2	1.828100E-2	1.137250E-2	-1.013378E+1	2.732853E-2	3.218199E-2	7.459952E-2	2.401527E-2
10/19/2017  17:40:03.150632	3.361405E-1	2.591253E-2	1.900811E-2	-1.014651E+1	1.457878E-2	2.709402E-2	7.968532E-2	3.164702E-2
10/19/2017  17:40:03.151632	-3.400309E-1	8.105642E-3	2.664372E-2	-1.014905E+1	1.202884E-2	1.654165E-3	7.714242E-2	4.182269E-2
10/19/2017  17:40:03.152632	-2.668501E+0	-2.069720E-3	1.391770E-2	-1.013632E+1	2.477858E-2	1.183011E-2	6.697081E-2	3.164702E-2
10/19/2017  17:40:03.153632	1.276967E-1	2.845637E-2	1.137250E-2	-1.014396E+1	2.987847E-2	2.709402E-2	6.188501E-2	2.147136E-2
10/19/2017  17:40:03.154632	-1.616114E+0	2.082484E-2	2.918892E-2	-1.014396E+1	1.712873E-2	2.963800E-2	7.968532E-2	2.910311E-2
10/19/2017  17:40:03.155632	-3.273496E+0	3.017961E-3	2.155331E-2	-1.013887E+1	1.712873E-2	1.183011E-2	6.442791E-2	3.673486E-2
10/19/2017  17:40:03.156632	-2.012665E+0	8.105642E-3	1.646291E-2	-1.013378E+1	2.477858E-2	2.709402E-2	6.697081E-2	2.910311E-2
10/19/2017  17:40:03.157632	-2.648165E+0	2.591253E-2	1.646291E-2	-1.014905E+1	2.477858E-2	2.709402E-2	7.205661E-2	2.401527E-2
10/19/2017  17:40:03.158632	-1.443258E+0	1.064948E-2	2.409852E-2	-1.014142E+1	1.967868E-2	3.472597E-2	7.968532E-2	3.419094E-2
10/19/2017  17:40:03.159632	-2.467683E+0	1.064948E-2	1.646291E-2	-1.014651E+1	1.457878E-2	2.200605E-2	7.205661E-2	2.655919E-2
10/19/2017  17:40:03.160632	-4.928337E+0	1.573716E-2	1.900811E-2	-1.014396E+1	2.222863E-2	2.455003E-2	7.205661E-2	2.401527E-2
10/19/2017  17:40:03.161632	-4.943589E+0	2.845637E-2	1.646291E-2	-1.016433E+1	1.457878E-2	1.946206E-2	7.459952E-2	3.164702E-2
10/19/2017  17:40:03.162632	-3.049800E+0	1.319332E-2	2.918892E-2	-1.014396E+1	1.457878E-2	2.455003E-2	7.205661E-2	3.164702E-2
10/19/2017  17:40:03.163632	5.003248E+0	5.561801E-3	1.646291E-2	-1.014142E+1	2.222863E-2	1.946206E-2	7.714242E-2	2.655919E-2
10/19/2017  17:40:03.164632	5.013416E+0	1.319332E-2	1.391770E-2	-1.012869E+1	2.732853E-2	2.963800E-2	6.697081E-2	2.147136E-2
10/19/2017  17:40:03.165632	2.288395E+0	1.573716E-2	2.409852E-2	-1.013887E+1	2.732853E-2	2.709402E-2	8.222822E-2	2.910311E-2
10/19/2017  17:40:03.166632	-3.314168E+0	8.105642E-3	2.664372E-2	-1.013378E+1	1.457878E-2	1.437409E-2	8.222822E-2	3.927877E-2
10/19/2017  17:40:03.167632	9.719269E-2	1.064948E-2	1.137250E-2	-1.013887E+1	2.732853E-2	1.183011E-2	6.951371E-2	2.147136E-2
10/19/2017  17:40:03.168632	-1.626282E+0	2.082484E-2	1.646291E-2	-1.015669E+1	2.987847E-2	1.946206E-2	6.442791E-2	2.655919E-2
10/19/2017  17:40:03.169632	-1.799138E+0	1.319332E-2	1.391770E-2	-1.013887E+1	1.967868E-2	2.200605E-2	7.205661E-2	2.655919E-2
10/19/2017  17:40:03.170632	-1.537312E+0	1.064948E-2	2.409852E-2	-1.012105E+1	1.712873E-2	2.200605E-2	7.459952E-2	3.927877E-2
10/19/2017  17:40:03.171632	-1.555106E+0	1.319332E-2	8.827299E-3	-1.013123E+1	2.732853E-2	1.437409E-2	6.951371E-2	3.164702E-2
10/19/2017  17:40:03.172632	-7.029213E-3	2.336868E-2	1.391770E-2	-1.015160E+1	2.987847E-2	1.946206E-2	6.188501E-2	2.401527E-2
10/19/2017  17:40:03.173632	-1.555106E+0	1.064948E-2	3.427933E-2	-1.013887E+1	1.712873E-2	2.963800E-2	8.222822E-2	3.164702E-2
10/19/2017  17:40:03.174632	-4.928337E+0	4.741205E-4	2.409852E-2	-1.014142E+1	1.457878E-2	1.437409E-2	8.985693E-2	3.419094E-2
10/19/2017  17:40:03.175632	-4.941047E+0	1.064948E-2	8.827299E-3	-1.014396E+1	2.987847E-2	2.455003E-2	6.951371E-2	2.910311E-2
10/19/2017  17:40:03.176632	-4.935963E+0	1.064948E-2	1.137250E-2	-1.015924E+1	2.732853E-2	2.455003E-2	6.188501E-2	2.147136E-2
10/19/2017  17:40:03.177632	-1.412754E+0	1.828100E-2	1.391770E-2	-1.014905E+1	6.928941E-3	1.946206E-2	8.222822E-2	2.655919E-2
10/19/2017  17:40:03.178632	4.418589E+0	3.017961E-3	1.391770E-2	-1.012105E+1	2.477858E-2	1.691808E-2	7.714242E-2	3.927877E-2
								
10/19/2017  17:40:03.179632	5.010874E+0	1.064948E-2	1.900811E-2	-1.012105E+1	2.477858E-2	2.963800E-2	7.459952E-2	3.419094E-2
10/19/2017  17:40:03.180632	5.005790E+0	8.105642E-3	1.900811E-2	-1.013632E+1	1.712873E-2	2.709402E-2	7.205661E-2	2.401527E-2
10/19/2017  17:40:03.181632	4.942240E+0	1.064948E-2	2.155331E-2	-1.013123E+1	1.457878E-2	1.946206E-2	8.222822E-2	2.401527E-2
10/19/2017  17:40:03.182632	-2.607493E+0	2.845637E-2	1.900811E-2	-1.014142E+1	2.732853E-2	1.437409E-2	7.459952E-2	3.673486E-2
10/19/2017  17:40:03.183632	-2.902365E+0	1.064948E-2	1.137250E-2	-1.015924E+1	2.732853E-2	2.709402E-2	6.697081E-2	2.401527E-2
10/19/2017  17:40:03.184632	-2.444805E+0	1.828100E-2	2.155331E-2	-1.014142E+1	1.712873E-2	2.709402E-2	7.714242E-2	2.147136E-2
10/19/2017  17:40:03.185632	-8.484305E-1	1.573716E-2	2.155331E-2	-1.014651E+1	1.457878E-2	2.200605E-2	7.968532E-2	3.164702E-2
10/19/2017  17:40:03.186632	1.327520E+0	1.064948E-2	2.155331E-2	-1.013378E+1	1.457878E-2	1.691808E-2	7.459952E-2	3.927877E-2
10/19/2017  17:40:03.187632	1.619849E+0	1.319332E-2	2.155331E-2	-1.013123E+1	2.732853E-2	2.455003E-2	7.205661E-2	3.164702E-2
10/19/2017  17:40:03.188632	1.805415E+0	1.828100E-2	2.664372E-2	-1.013887E+1	2.477858E-2	2.709402E-2	7.968532E-2	1.892744E-2
10/19/2017  17:40:03.189632	2.796794E+0	1.319332E-2	2.155331E-2	-1.014142E+1	1.712873E-2	2.200605E-2	8.222822E-2	3.673486E-2
10/19/2017  17:40:03.190632	5.547523E-1	3.017961E-3	2.409852E-2	-1.012869E+1	1.967868E-2	1.691808E-2	7.459952E-2	4.691052E-2
10/19/2017  17:40:03.191632	-2.139765E+0	1.319332E-2	1.646291E-2	-1.011341E+1	2.477858E-2	2.455003E-2	6.951371E-2	3.164702E-2
10/19/2017  17:40:03.192632	-4.943589E+0	2.082484E-2	1.391770E-2	-1.015160E+1	1.712873E-2	2.709402E-2	7.205661E-2	1.892744E-2
10/19/2017  17:40:03.193632	-4.633465E+0	1.573716E-2	2.409852E-2	-1.016178E+1	1.457878E-2	1.437409E-2	7.459952E-2	3.164702E-2
10/19/2017  17:40:03.194632	2.306189E+0	3.017961E-3	2.155331E-2	-1.012869E+1	2.477858E-2	1.946206E-2	7.205661E-2	3.927877E-2
10/19/2017  17:40:03.195632	-1.219562E+0	1.064948E-2	1.137250E-2	-1.013123E+1	2.987847E-2	2.455003E-2	7.714242E-2	3.164702E-2
10/19/2017  17:40:03.196632	-1.603404E+0	2.082484E-2	1.646291E-2	-1.014396E+1	2.222863E-2	1.946206E-2	7.205661E-2	3.164702E-2
10/19/2017  17:40:03.197632	5.005790E+0	1.319332E-2	2.155331E-2	-1.014651E+1	1.712873E-2	2.963800E-2	7.714242E-2	3.164702E-2
10/19/2017  17:40:03.198632	3.533974E+0	5.561801E-3	1.137250E-2	-1.012359E+1	1.202884E-2	2.455003E-2	8.222822E-2	3.927877E-2
10/19/2017  17:40:03.199632	1.454906E-1	1.828100E-2	1.137250E-2	-1.012869E+1	2.732853E-2	1.691808E-2	6.951371E-2	3.164702E-2
10/19/2017  17:40:03.200632	-5.078028E-1	1.828100E-2	1.137250E-2	-1.014905E+1	2.987847E-2	1.691808E-2	6.951371E-2	2.401527E-2
10/19/2017  17:40:03.201632	4.055083E+0	1.828100E-2	2.409852E-2	-1.014142E+1	1.457878E-2	2.709402E-2	7.968532E-2	2.655919E-2
10/19/2017  17:40:03.202632	2.906100E+0	8.105642E-3	2.409852E-2	-1.012869E+1	1.457878E-2	1.691808E-2	8.222822E-2	3.673486E-2
10/19/2017  17:40:03.203632	-1.140760E+0	4.741205E-4	1.137250E-2	-1.013887E+1	3.497837E-2	1.691808E-2	7.205661E-2	3.164702E-2
10/19/2017  17:40:03.204632	-3.850530E+0	2.082484E-2	1.391770E-2	-1.014142E+1	2.987847E-2	2.963800E-2	6.951371E-2	2.910311E-2
10/19/2017  17:40:03.205632	-8.865604E-1	1.573716E-2	2.664372E-2	-1.014396E+1	1.202884E-2	3.218199E-2	7.968532E-2	2.147136E-2
10/19/2017  17:40:03.206632	1.065694E+0	1.064948E-2	2.155331E-2	-1.013632E+1	1.457878E-2	1.946206E-2	8.731403E-2	4.182269E-2
10/19/2017  17:40:03.207632	-5.688107E-1	5.561801E-3	1.137250E-2	-1.012869E+1	3.242842E-2	1.691808E-2	7.459952E-2	3.164702E-2
10/19/2017  17:40:03.208632	-1.702542E+0	1.064948E-2	1.646291E-2	-1.013378E+1	2.732853E-2	2.455003E-2	6.697081E-2	2.401527E-2
10/19/2017  17:40:03.209632	-1.913527E+0	1.828100E-2	1.391770E-2	-1.014142E+1	2.222863E-2	2.963800E-2	7.459952E-2	1.892744E-2
10/19/2017  17:40:03.210632	-7.696285E-1	1.319332E-2	1.137250E-2	-1.014651E+1	1.457878E-2	1.691808E-2	7.968532E-2	3.419094E-2
10/19/2017  17:40:03.211632	1.060610E+0	8.105642E-3	2.409852E-2	-1.012614E+1	2.222863E-2	1.946206E-2	7.459952E-2	3.673486E-2
								
10/19/2017  17:40:03.212632	2.235013E+0	8.105642E-3	2.155331E-2	-1.011850E+1	2.477858E-2	2.709402E-2	6.951371E-2	2.655919E-2
10/19/2017  17:40:03.213632	2.547966E-1	2.082484E-2	1.137250E-2	-1.014142E+1	1.967868E-2	2.709402E-2	6.951371E-2	1.638352E-2
10/19/2017  17:40:03.214632	-1.112511E-1	1.064948E-2	2.409852E-2	-1.013887E+1	1.457878E-2	1.691808E-2	8.477112E-2	3.164702E-2
10/19/2017  17:40:03.215632	1.810786E-1	3.017961E-3	2.664372E-2	-1.014142E+1	2.222863E-2	1.946206E-2	6.951371E-2	3.927877E-2
10/19/2017  17:40:03.216632	6.589742E-1	1.064948E-2	1.137250E-2	-1.013887E+1	2.732853E-2	2.200605E-2	7.714242E-2	2.910311E-2
10/19/2017  17:40:03.217632	3.412245E-1	2.591253E-2	8.827299E-3	-1.014142E+1	2.222863E-2	2.455003E-2	7.714242E-2	2.655919E-2
10/19/2017  17:40:03.218632	-5.179708E-1	8.105642E-3	1.900811E-2	-1.014396E+1	2.222863E-2	2.200605E-2	7.205661E-2	3.164702E-2
10/19/2017  17:40:03.219632	-3.705636E+0	1.064948E-2	3.736893E-3	-1.014651E+1	1.202884E-2	2.963800E-2	7.459952E-2	3.673486E-2
10/19/2017  17:40:03.220632	-1.438174E+0	1.573716E-2	1.646291E-2	-1.014396E+1	2.987847E-2	2.709402E-2	7.459952E-2	2.655919E-2
10/19/2017  17:40:03.221632	2.893390E+0	1.319332E-2	2.409852E-2	-1.013887E+1	1.457878E-2	1.691808E-2	7.968532E-2	2.910311E-2
10/19/2017  17:40:03.222632	-1.664412E+0	8.105642E-3	1.646291E-2	-1.013632E+1	2.222863E-2	1.691808E-2	7.459952E-2	3.927877E-2
10/19/2017  17:40:03.223632	-2.505813E+0	1.319332E-2	1.391770E-2	-1.013632E+1	2.987847E-2	3.218199E-2	6.951371E-2	3.164702E-2
10/19/2017  17:40:03.224632	1.574093E+0	3.608789E-2	2.155331E-2	-1.014651E+1	2.732853E-2	2.709402E-2	7.714242E-2	2.401527E-2
10/19/2017  17:40:03.225632	1.990981E+0	5.561801E-3	2.664372E-2	-1.013887E+1	1.457878E-2	1.946206E-2	7.968532E-2	2.655919E-2
10/19/2017  17:40:03.226632	2.158753E+0	5.561801E-3	1.391770E-2	-1.012105E+1	2.477858E-2	1.183011E-2	6.442791E-2	3.164702E-2
10/19/2017  17:40:03.227632	9.843499E-1	2.082484E-2	8.827299E-3	-1.014142E+1	3.242842E-2	2.455003E-2	6.697081E-2	2.655919E-2
10/19/2017  17:40:03.228632	2.573098E+0	2.082484E-2	2.155331E-2	-1.013887E+1	3.242842E-2	2.200605E-2	8.731403E-2	3.673486E-2
10/19/2017  17:40:03.229632	-1.016202E+0	8.105642E-3	1.900811E-2	-1.013378E+1	2.222863E-2	1.437409E-2	7.205661E-2	3.927877E-2
10/19/2017  17:40:03.230632	-2.053337E+0	1.319332E-2	1.391770E-2	-1.014651E+1	1.457878E-2	2.455003E-2	6.697081E-2	2.910311E-2
10/19/2017  17:40:03.231632	-4.938505E+0	1.828100E-2	1.137250E-2	-1.015160E+1	2.222863E-2	2.455003E-2	7.714242E-2	2.401527E-2
10/19/2017  17:40:03.232632	-4.953757E+0	1.828100E-2	2.664372E-2	-1.014396E+1	1.712873E-2	2.455003E-2	7.714242E-2	4.945444E-2
10/19/2017  17:40:03.233632	-4.867329E+0	3.017961E-3	1.646291E-2	-1.016433E+1	1.712873E-2	2.200605E-2	7.714242E-2	2.910311E-2
10/19/2017  17:40:03.234632	-4.874668E-1	1.319332E-2	1.391770E-2	-1.013887E+1	1.712873E-2	1.691808E-2	7.459952E-2	3.164702E-2
10/19/2017  17:40:03.235632	4.970202E+0	1.573716E-2	1.646291E-2	-1.013632E+1	2.222863E-2	2.200605E-2	6.697081E-2	3.164702E-2
10/19/2017  17:40:03.236632	5.008332E+0	1.319332E-2	2.664372E-2	-1.011850E+1	2.477858E-2	2.200605E-2	7.205661E-2	3.927877E-2
10/19/2017  17:40:03.237632	5.015958E+0	1.319332E-2	1.391770E-2	-1.012614E+1	2.732853E-2	2.455003E-2	7.714242E-2	3.164702E-2
10/19/2017  17:40:03.238632	3.328072E+0	1.573716E-2	1.137250E-2	-1.014142E+1	2.222863E-2	1.946206E-2	7.459952E-2	2.910311E-2
10/19/2017  17:40:03.239632	-1.646331E-1	1.319332E-2	2.409852E-2	-1.014396E+1	2.222863E-2	2.200605E-2	8.731403E-2	3.419094E-2
10/19/2017  17:40:03.240632	-4.391688E-1	1.573716E-2	1.646291E-2	-1.013887E+1	1.202884E-2	2.709402E-2	7.459952E-2	3.164702E-2
10/19/2017  17:40:03.241632	-3.807029E-1	2.591253E-2	1.646291E-2	-1.014396E+1	1.967868E-2	2.963800E-2	7.968532E-2	2.655919E-2
10/19/2017  17:40:03.242632	-5.179708E-1	8.105642E-3	2.409852E-2	-1.013887E+1	1.712873E-2	1.654165E-3	7.968532E-2	3.673486E-2
10/19/2017  17:40:03.243632	-9.571210E-3	4.741205E-4	1.137250E-2	-1.013632E+1	2.732853E-2	1.183011E-2	6.951371E-2	3.164702E-2
10/19/2017  17:40:03.244632	4.276524E-1	2.082484E-2	1.137250E-2	-1.013887E+1	1.967868E-2	2.963800E-2	7.714242E-2	2.655919E-2
								
10/19/2017  17:40:03.245632	1.355482E+0	2.845637E-2	2.409852E-2	-1.013123E+1	1.967868E-2	1.946206E-2	8.222822E-2	3.164702E-2
10/19/2017  17:40:03.246632	9.843499E-1	5.561801E-3	1.646291E-2	-1.012869E+1	3.242842E-2	1.183011E-2	7.714242E-2	4.182269E-2
10/19/2017  17:40:03.247632	-1.295822E+0	3.017961E-3	1.900811E-2	-1.014142E+1	2.477858E-2	1.946206E-2	7.205661E-2	2.910311E-2
10/19/2017  17:40:03.248632	-3.418390E+0	1.319332E-2	2.664372E-2	-1.014142E+1	1.202884E-2	1.946206E-2	8.477112E-2	3.164702E-2
10/19/2017  17:40:03.249632	-4.946131E+0	1.064948E-2	1.646291E-2	-1.013887E+1	3.497837E-2	1.691808E-2	7.714242E-2	2.655919E-2
10/19/2017  17:40:03.250632	-4.956299E+0	1.064948E-2	1.646291E-2	-1.014905E+1	1.967868E-2	2.709402E-2	7.205661E-2	2.401527E-2
10/19/2017  17:40:03.251632	-4.897833E+0	1.064948E-2	2.664372E-2	-1.015160E+1	-7.209035E-4	1.691808E-2	7.205661E-2	2.147136E-2
10/19/2017  17:40:03.252632	3.706829E+0	1.573716E-2	8.827299E-3	-1.012869E+1	2.222863E-2	9.286120E-3	7.205661E-2	3.164702E-2
10/19/2017  17:40:03.253632	5.003248E+0	1.573716E-2	1.900811E-2	-1.012869E+1	2.477858E-2	2.455003E-2	7.714242E-2	4.182269E-2
10/19/2017  17:40:03.254632	4.393169E+0	1.319332E-2	3.173413E-2	-1.011596E+1	1.457878E-2	2.455003E-2	7.459952E-2	3.673486E-2
10/19/2017  17:40:03.255632	-4.595335E+0	5.561801E-3	1.391770E-2	-1.013378E+1	2.477858E-2	1.437409E-2	6.951371E-2	3.164702E-2
10/19/2017  17:40:03.256632	-1.537312E+0	1.828100E-2	1.391770E-2	-1.013632E+1	2.987847E-2	2.709402E-2	7.968532E-2	2.401527E-2
10/19/2017  17:40:03.257632	-3.731056E+0	1.828100E-2	2.918892E-2	-1.014905E+1	1.967868E-2	1.946206E-2	7.968532E-2	3.164702E-2
10/19/2017  17:40:03.258632	7.809901E-1	8.105642E-3	1.646291E-2	-1.014651E+1	1.967868E-2	1.946206E-2	7.968532E-2	3.673486E-2
10/19/2017  17:40:03.259632	4.998164E+0	1.319332E-2	6.282096E-3	-1.014142E+1	1.712873E-2	2.455003E-2	7.205661E-2	2.147136E-2
10/19/2017  17:40:03.260632	-5.942307E-1	1.319332E-2	2.155331E-2	-1.013632E+1	1.712873E-2	2.200605E-2	8.731403E-2	3.164702E-2
10/19/2017  17:40:03.261632	-3.202320E+0	1.828100E-2	2.918892E-2	-1.014142E+1	2.477858E-2	1.946206E-2	7.205661E-2	3.419094E-2
10/19/2017  17:40:03.262632	1.884217E+0	2.082484E-2	1.900811E-2	-1.014142E+1	1.967868E-2	1.946206E-2	7.205661E-2	2.147136E-2
10/19/2017  17:40:03.263632	-7.467505E-1	1.319332E-2	1.137250E-2	-1.013632E+1	1.202884E-2	1.691808E-2	8.222822E-2	2.655919E-2
10/19/2017  17:40:03.264632	-7.975905E-1	1.064948E-2	1.900811E-2	-1.013632E+1	2.477858E-2	1.691808E-2	7.459952E-2	3.673486E-2
10/19/2017  17:40:03.265632	-1.010831E-1	1.319332E-2	1.391770E-2	-1.014651E+1	2.732853E-2	2.963800E-2	6.951371E-2	2.910311E-2
10/19/2017  17:40:03.266632	2.359571E+0	3.863173E-2	2.155331E-2	-1.013378E+1	9.478889E-3	2.709402E-2	7.714242E-2	3.164702E-2
10/19/2017  17:40:03.267632	4.095755E+0	1.064948E-2	1.900811E-2	-1.012614E+1	1.967868E-2	-8.898203E-4	7.459952E-2	2.910311E-2
10/19/2017  17:40:03.268632	3.152674E+0	4.741205E-4	1.391770E-2	-1.014142E+1	2.477858E-2	1.691808E-2	6.697081E-2	2.910311E-2
10/19/2017  17:40:03.269632	1.790163E+0	1.828100E-2	1.900811E-2	-1.013378E+1	2.477858E-2	1.946206E-2	7.714242E-2	3.927877E-2
10/19/2017  17:40:03.270632	2.471706E-1	1.319332E-2	2.664372E-2	-1.012869E+1	2.477858E-2	1.691808E-2	8.731403E-2	3.164702E-2
10/19/2017  17:40:03.271632	1.030106E+0	1.573716E-2	8.827299E-3	-1.014396E+1	2.732853E-2	1.946206E-2	6.951371E-2	3.164702E-2
10/19/2017  17:40:03.272632	-3.679929E-1	2.591253E-2	1.900811E-2	-1.014651E+1	2.477858E-2	1.946206E-2	6.951371E-2	2.910311E-2
10/19/2017  17:40:03.273632	-5.383067E-1	1.064948E-2	2.409852E-2	-1.012614E+1	1.967868E-2	2.455003E-2	8.222822E-2	3.927877E-2
10/19/2017  17:40:03.274632	7.835321E-1	1.064948E-2	1.137250E-2	-1.013378E+1	2.222863E-2	1.183011E-2	6.951371E-2	4.691052E-2
10/19/2017  17:40:03.275632	-7.086206E-1	1.064948E-2	8.827299E-3	-1.012869E+1	1.967868E-2	2.200605E-2	6.442791E-2	2.401527E-2
10/19/2017  17:40:03.276632	-2.007581E+0	1.573716E-2	2.664372E-2	-1.014396E+1	1.712873E-2	2.455003E-2	7.968532E-2	2.655919E-2
10/19/2017  17:40:03.277632	-2.699005E+0	1.064948E-2	1.900811E-2	-1.012869E+1	2.222863E-2	1.946206E-2	7.968532E-2	3.164702E-2
								
10/19/2017  17:40:03.278632	-2.236361E+0	2.082484E-2	1.391770E-2	-1.014142E+1	2.477858E-2	2.200605E-2	7.205661E-2	3.164702E-2
10/19/2017  17:40:03.279632	-9.755303E-1	1.573716E-2	1.900811E-2	-1.014396E+1	1.967868E-2	2.709402E-2	7.714242E-2	2.401527E-2
10/19/2017  17:40:03.280632	1.093656E+0	8.105642E-3	2.155331E-2	-1.012614E+1	1.202884E-2	1.691808E-2	7.968532E-2	3.673486E-2
10/19/2017  17:40:03.281632	9.945179E-1	8.105642E-3	1.391770E-2	-1.012614E+1	2.477858E-2	1.691808E-2	7.459952E-2	3.164702E-2
10/19/2017  17:40:03.282632	-5.306807E-1	2.591253E-2	1.137250E-2	-1.014396E+1	2.222863E-2	2.455003E-2	7.205661E-2	2.401527E-2
10/19/2017  17:40:03.283632	-6.781166E-1	5.561801E-3	2.409852E-2	-1.013378E+1	1.712873E-2	2.200605E-2	7.968532E-2	3.927877E-2
10/19/2017  17:40:03.284632	7.685671E-2	8.105642E-3	1.646291E-2	-1.012869E+1	1.457878E-2	1.654165E-3	6.697081E-2	3.419094E-2
10/19/2017  17:40:03.285632	1.236008E+0	2.591253E-2	1.391770E-2	-1.013887E+1	2.987847E-2	2.709402E-2	6.951371E-2	2.401527E-2
10/19/2017  17:40:03.286632	4.980370E+0	1.828100E-2	2.664372E-2	-1.013632E+1	2.987847E-2	3.472597E-2	7.459952E-2	3.419094E-2
10/19/2017  17:40:03.287632	-3.324049E-1	4.741205E-4	2.664372E-2	-1.013123E+1	1.712873E-2	1.437409E-2	7.968532E-2	3.673486E-2
10/19/2017  17:40:03.288632	-2.838815E+0	1.064948E-2	1.391770E-2	-1.013632E+1	2.987847E-2	4.198150E-3	6.951371E-2	2.910311E-2
10/19/2017  17:40:03.289632	-9.018124E-1	3.354405E-2	1.137250E-2	-1.014905E+1	3.242842E-2	2.200605E-2	6.697081E-2	2.147136E-2
10/19/2017  17:40:03.290632	4.960034E+0	1.828100E-2	2.918892E-2	-1.013632E+1	1.712873E-2	2.963800E-2	7.714242E-2	3.419094E-2
10/19/2017  17:40:03.291632	7.276081E-1	8.105642E-3	1.391770E-2	-1.012105E+1	1.712873E-2	1.691808E-2	7.459952E-2	3.164702E-2
10/19/2017  17:40:03.292632	-3.804774E+0	1.064948E-2	8.827299E-3	-1.014905E+1	2.477858E-2	1.946206E-2	6.697081E-2	2.910311E-2
10/19/2017  17:40:03.293632	-8.026745E-1	1.573716E-2	2.155331E-2	-1.014651E+1	1.457878E-2	2.963800E-2	6.951371E-2	3.673486E-2
10/19/2017  17:40:03.294632	-1.719720E-2	1.319332E-2	2.155331E-2	-1.013887E+1	1.967868E-2	2.455003E-2	7.205661E-2	3.164702E-2
10/19/2017  17:40:03.295632	3.894937E+0	1.064948E-2	1.137250E-2	-1.013887E+1	2.477858E-2	1.946206E-2	6.697081E-2	3.164702E-2
10/19/2017  17:40:03.296632	4.136427E+0	1.573716E-2	1.137250E-2	-1.014905E+1	2.222863E-2	2.455003E-2	7.205661E-2	2.910311E-2
10/19/2017  17:40:03.297632	-2.490561E+0	1.064948E-2	2.918892E-2	-1.013887E+1	1.457878E-2	1.946206E-2	7.714242E-2	3.673486E-2
10/19/2017  17:40:03.298632	-4.252165E+0	1.064948E-2	1.900811E-2	-1.011086E+1	2.732853E-2	1.946206E-2	6.188501E-2	3.673486E-2
10/19/2017  17:40:03.299632	-2.744761E+0	1.319332E-2	1.137250E-2	-1.014651E+1	1.712873E-2	1.691808E-2	7.459952E-2	3.164702E-2
10/19/2017  17:40:03.300632	-1.689832E+0	1.319332E-2	2.155331E-2	-1.016433E+1	1.967868E-2	9.286120E-3	6.951371E-2	3.164702E-2
10/19/2017  17:40:03.301632	-5.103448E-1	3.017961E-3	2.409852E-2	-1.013123E+1	2.222863E-2	1.691808E-2	7.205661E-2	4.182269E-2
10/19/2017  17:40:03.302632	4.962863E-1	2.082484E-2	1.137250E-2	-1.013378E+1	2.732853E-2	2.200605E-2	7.714242E-2	3.164702E-2
10/19/2017  17:40:03.303632	-7.086206E-1	3.100021E-2	2.918892E-2	-1.014142E+1	2.987847E-2	3.472597E-2	7.459952E-2	3.164702E-2
10/19/2017  17:40:03.304632	2.397701E+0	1.064948E-2	1.900811E-2	-1.013632E+1	1.202884E-2	1.437409E-2	8.222822E-2	3.673486E-2
10/19/2017  17:40:03.305632	3.256896E+0	1.064948E-2	1.900811E-2	-1.012869E+1	2.732853E-2	2.709402E-2	6.442791E-2	3.164702E-2
10/19/2017  17:40:03.306632	-1.039080E+0	3.100021E-2	1.646291E-2	-1.013887E+1	2.222863E-2	2.963800E-2	7.459952E-2	2.401527E-2
10/19/2017  17:40:03.307632	-2.175353E+0	1.319332E-2	2.155331E-2	-1.014651E+1	1.457878E-2	2.709402E-2	7.714242E-2	3.927877E-2
10/19/2017  17:40:03.308632	-1.870314E+0	5.561801E-3	2.155331E-2	-1.013378E+1	1.457878E-2	1.946206E-2	7.205661E-2	2.910311E-2
10/19/2017  17:40:03.309632	-2.414301E+0	1.319332E-2	1.137250E-2	-1.015160E+1	2.987847E-2	2.709402E-2	7.205661E-2	1.892744E-2
10/19/2017  17:40:03.310632	-1.095004E+0	3.017961E-3	2.409852E-2	-1.015415E+1	2.477858E-2	2.963800E-2	8.222822E-2	3.419094E-2
								
10/19/2017  17:40:03.311632	3.493302E+0	5.561801E-3	1.900811E-2	-1.012869E+1	1.712873E-2	1.437409E-2	7.205661E-2	4.182269E-2
10/19/2017  17:40:03.312632	1.454619E+0	1.319332E-2	1.137250E-2	-1.012869E+1	3.497837E-2	1.946206E-2	6.951371E-2	3.164702E-2
10/19/2017  17:40:03.313632	6.335542E-1	1.828100E-2	1.391770E-2	-1.014651E+1	2.222863E-2	2.455003E-2	7.205661E-2	3.164702E-2
10/19/2017  17:40:03.314632	4.240649E+0	1.319332E-2	1.646291E-2	-1.013123E+1	2.987847E-2	2.200605E-2	7.459952E-2	3.419094E-2
10/19/2017  17:40:03.315632	1.098740E+0	1.319332E-2	1.900811E-2	-1.014142E+1	2.222863E-2	1.946206E-2	7.205661E-2	3.164702E-2
10/19/2017  17:40:03.316632	-3.242992E+0	1.573716E-2	1.646291E-2	-1.014396E+1	1.202884E-2	1.946206E-2	7.459952E-2	1.638352E-2
10/19/2017  17:40:03.317632	-3.260786E+0	1.319332E-2	1.646291E-2	-1.015160E+1	2.222863E-2	1.437409E-2	6.951371E-2	3.164702E-2
10/19/2017  17:40:03.318632	-7.645445E-1	8.105642E-3	2.155331E-2	-1.013123E+1	1.202884E-2	1.691808E-2	7.714242E-2	3.927877E-2
10/19/2017  17:40:03.319632	2.623938E+0	1.573716E-2	1.646291E-2	-1.011596E+1	2.987847E-2	2.963800E-2	7.459952E-2	2.910311E-2
10/19/2017  17:40:03.320632	1.586803E+0	2.591253E-2	2.155331E-2	-1.014142E+1	2.477858E-2	2.963800E-2	7.459952E-2	2.655919E-2
10/19/2017  17:40:03.321632	1.243634E+0	1.064948E-2	2.155331E-2	-1.014396E+1	1.712873E-2	1.691808E-2	7.205661E-2	3.673486E-2
10/19/2017  17:40:03.322632	-1.239611E-1	4.741205E-4	2.155331E-2	-1.013123E+1	2.987847E-2	1.437409E-2	7.459952E-2	3.419094E-2
10/19/2017  17:40:03.323632	-1.013660E+0	1.064948E-2	8.827299E-3	-1.014651E+1	2.477858E-2	3.218199E-2	8.222822E-2	2.655919E-2
10/19/2017  17:40:03.324632	-6.501546E-1	1.828100E-2	2.918892E-2	-1.014651E+1	1.457878E-2	3.218199E-2	8.222822E-2	2.655919E-2
10/19/2017  17:40:03.325632	-1.097546E+0	5.561801E-3	2.155331E-2	-1.013378E+1	1.202884E-2	1.691808E-2	7.968532E-2	3.927877E-2
10/19/2017  17:40:03.326632	2.379907E+0	8.105642E-3	1.646291E-2	-1.013887E+1	1.712873E-2	2.455003E-2	6.951371E-2	2.910311E-2
10/19/2017  17:40:03.327632	2.110455E+0	2.845637E-2	1.646291E-2	-1.013887E+1	2.477858E-2	2.963800E-2	7.714242E-2	3.164702E-2
10/19/2017  17:40:03.328632	-1.870314E+0	1.319332E-2	2.409852E-2	-1.014142E+1	2.477858E-2	3.726996E-2	8.222822E-2	3.673486E-2
10/19/2017  17:40:03.329632	-3.438726E+0	5.561801E-3	1.646291E-2	-1.013632E+1	1.712873E-2	1.183011E-2	7.205661E-2	3.164702E-2
10/19/2017  17:40:03.330632	-3.215030E+0	1.064948E-2	1.646291E-2	-1.014651E+1	3.242842E-2	1.183011E-2	7.205661E-2	2.655919E-2
10/19/2017  17:40:03.331632	-1.509350E+0	1.828100E-2	1.900811E-2	-1.013632E+1	2.987847E-2	2.963800E-2	7.459952E-2	3.164702E-2
10/19/2017  17:40:03.332632	1.124447E-1	1.319332E-2	1.900811E-2	-1.013632E+1	1.712873E-2	1.946206E-2	7.968532E-2	3.164702E-2
10/19/2017  17:40:03.333632	2.097745E+0	-4.613560E-3	1.646291E-2	-1.014142E+1	2.987847E-2	1.946206E-2	7.714242E-2	2.655919E-2
10/19/2017  17:40:03.334632	3.994075E+0	2.082484E-2	1.391770E-2	-1.014142E+1	2.222863E-2	2.455003E-2	7.459952E-2	2.655919E-2
10/19/2017  17:40:03.335632	1.098740E+0	1.319332E-2	2.664372E-2	-1.012869E+1	1.202884E-2	2.455003E-2	7.714242E-2	3.164702E-2
10/19/2017  17:40:03.336632	-1.827100E+0	8.105642E-3	1.646291E-2	-1.012869E+1	2.732853E-2	1.946206E-2	6.442791E-2	3.927877E-2
10/19/2017  17:40:03.337632	-2.869319E+0	1.573716E-2	1.391770E-2	-1.014651E+1	2.477858E-2	2.709402E-2	7.459952E-2	2.147136E-2
10/19/2017  17:40:03.338632	-3.065052E+0	1.828100E-2	1.900811E-2	-1.015924E+1	1.457878E-2	2.709402E-2	7.714242E-2	3.673486E-2
10/19/2017  17:40:03.339632	1.706277E+0	8.105642E-3	2.664372E-2	-1.013632E+1	1.202884E-2	1.437409E-2	7.714242E-2	4.691052E-2
10/19/2017  17:40:03.340632	-1.252608E+0	1.064948E-2	1.391770E-2	-1.011596E+1	2.732853E-2	2.709402E-2	6.951371E-2	2.910311E-2
10/19/2017  17:40:03.341632	5.877982E-1	2.082484E-2	8.827299E-3	-1.014142E+1	1.967868E-2	2.455003E-2	7.459952E-2	2.655919E-2
10/19/2017  17:40:03.342632	1.729155E+0	1.573716E-2	2.409852E-2	-1.015415E+1	1.457878E-2	1.691808E-2	7.714242E-2	3.164702E-2
10/19/2017  17:40:03.343632	7.431471E-2	4.741205E-4	1.900811E-2	-1.013378E+1	1.967868E-2	1.946206E-2	7.205661E-2	3.673486E-2
								
10/19/2017  17:40:03.344632	1.721529E+0	1.573716E-2	1.137250E-2	-1.013378E+1	3.242842E-2	2.455003E-2	7.714242E-2	2.910311E-2
10/19/2017  17:40:03.345632	-4.758023E+0	2.845637E-2	2.918892E-2	-1.015415E+1	2.222863E-2	2.709402E-2	7.205661E-2	2.655919E-2
10/19/2017  17:40:03.346632	-4.951215E+0	8.105642E-3	2.409852E-2	-1.014905E+1	1.457878E-2	2.455003E-2	7.968532E-2	3.164702E-2
10/19/2017  17:40:03.347632	-4.330967E+0	8.105642E-3	2.409852E-2	-1.013887E+1	1.712873E-2	2.200605E-2	7.459952E-2	3.673486E-2
10/19/2017  17:40:03.348632	4.975286E+0	1.828100E-2	1.137250E-2	-1.013378E+1	2.987847E-2	2.200605E-2	6.951371E-2	2.910311E-2
10/19/2017  17:40:03.349632	3.109460E+0	1.828100E-2	1.646291E-2	-1.013632E+1	2.732853E-2	2.455003E-2	8.222822E-2	3.164702E-2
10/19/2017  17:40:03.350632	3.061162E+0	3.017961E-3	2.664372E-2	-1.013632E+1	6.928941E-3	2.200605E-2	8.222822E-2	2.655919E-2
10/19/2017  17:40:03.351632	5.008332E+0	8.105642E-3	1.900811E-2	-1.012614E+1	2.222863E-2	1.654165E-3	7.459952E-2	3.927877E-2
10/19/2017  17:40:03.352632	4.446551E+0	2.082484E-2	1.137250E-2	-1.013632E+1	3.242842E-2	1.946206E-2	6.951371E-2	3.673486E-2
10/19/2017  17:40:03.353632	-1.710168E+0	1.828100E-2	2.155331E-2	-1.014396E+1	1.967868E-2	2.455003E-2	7.205661E-2	3.164702E-2
10/19/2017  17:40:03.354632	-6.041116E-2	1.319332E-2	2.409852E-2	-1.014905E+1	1.202884E-2	2.200605E-2	7.714242E-2	3.673486E-2
10/19/2017  17:40:03.355632	3.110075E-2	8.105642E-3	1.646291E-2	-1.013887E+1	1.967868E-2	1.183011E-2	7.714242E-2	3.927877E-2
10/19/2017  17:40:03.356632	-1.315871E-1	1.573716E-2	1.646291E-2	-1.013887E+1	4.262821E-2	1.946206E-2	6.951371E-2	2.401527E-2
10/19/2017  17:40:03.357632	5.397873E-2	2.082484E-2	2.409852E-2	-1.014142E+1	1.457878E-2	2.963800E-2	6.951371E-2	2.401527E-2
10/19/2017  17:40:03.358632	3.335985E-1	1.319332E-2	2.409852E-2	-1.013123E+1	1.457878E-2	1.946206E-2	8.222822E-2	3.927877E-2
10/19/2017  17:40:03.359632	-1.973920E-2	8.105642E-3	6.282096E-3	-1.014396E+1	2.732853E-2	1.183011E-2	7.205661E-2	3.419094E-2
10/19/2017  17:40:03.360632	-6.549516E-2	1.828100E-2	1.646291E-2	-1.013887E+1	2.987847E-2	2.455003E-2	6.951371E-2	3.927877E-2
10/19/2017  17:40:03.361632	5.293323E-1	2.082484E-2	2.409852E-2	-1.011596E+1	2.222863E-2	3.472597E-2	7.714242E-2	2.655919E-2
10/19/2017  17:40:03.362632	-1.128050E+0	1.064948E-2	1.646291E-2	-1.013887E+1	1.457878E-2	2.200605E-2	8.222822E-2	2.910311E-2
10/19/2017  17:40:03.363632	-4.277585E+0	1.319332E-2	1.900811E-2	-1.015669E+1	1.967868E-2	1.691808E-2	7.968532E-2	3.927877E-2
10/19/2017  17:40:03.364632	4.980370E+0	3.017961E-3	2.664372E-2	-1.012869E+1	1.967868E-2	1.946206E-2	7.205661E-2	3.164702E-2
10/19/2017  17:40:03.365632	-5.128868E-1	1.064948E-2	1.900811E-2	-1.013123E+1	2.477858E-2	1.691808E-2	6.951371E-2	2.655919E-2
10/19/2017  17:40:03.366632	1.530879E+0	2.082484E-2	8.827299E-3	-1.013887E+1	2.222863E-2	1.946206E-2	7.205661E-2	2.910311E-2
10/19/2017  17:40:03.367632	-7.314986E-1	1.319332E-2	2.664372E-2	-1.013632E+1	2.222863E-2	2.455003E-2	7.459952E-2	3.164702E-2
10/19/2017  17:40:03.368632	4.004243E+0	8.105642E-3	1.391770E-2	-1.013123E+1	6.928941E-3	1.946206E-2	8.477112E-2	4.182269E-2
10/19/2017  17:40:03.369632	5.013416E+0	1.828100E-2	8.827299E-3	-1.012359E+1	2.477858E-2	1.691808E-2	6.951371E-2	3.164702E-2
10/19/2017  17:40:03.370632	-2.688550E-1	1.573716E-2	8.827299E-3	-1.014651E+1	3.497837E-2	1.437409E-2	6.697081E-2	1.892744E-2
10/19/2017  17:40:03.371632	-4.353845E+0	1.319332E-2	2.409852E-2	-1.015415E+1	1.712873E-2	2.963800E-2	7.205661E-2	3.419094E-2
10/19/2017  17:40:03.372632	-7.009946E-1	1.573716E-2	3.173413E-2	-1.014396E+1	1.457878E-2	2.200605E-2	7.968532E-2	3.927877E-2
10/19/2017  17:40:03.373632	9.436779E-1	2.591253E-2	8.827299E-3	-1.013378E+1	2.222863E-2	1.437409E-2	7.205661E-2	2.910311E-2
10/19/2017  17:40:03.374632	-1.107714E+0	2.336868E-2	1.646291E-2	-1.014651E+1	2.222863E-2	1.183011E-2	7.205661E-2	2.655919E-2
10/19/2017  17:40:03.375632	-2.981167E+0	-2.069720E-3	2.664372E-2	-1.015415E+1	9.478889E-3	1.946206E-2	7.714242E-2	3.164702E-2
10/19/2017  17:40:03.376632	-5.027188E-1	8.105642E-3	1.900811E-2	-1.013632E+1	1.967868E-2	1.691808E-2	7.968532E-2	3.927877E-2
								
10/19/2017  17:40:03.377632	4.835763E-1	1.319332E-2	1.137250E-2	-1.013378E+1	4.262821E-2	1.946206E-2	7.459952E-2	3.673486E-2
10/19/2017  17:40:03.378632	-6.450706E-1	2.082484E-2	1.900811E-2	-1.014142E+1	1.712873E-2	2.455003E-2	7.205661E-2	2.910311E-2
10/19/2017  17:40:03.379632	1.302100E+0	1.064948E-2	2.409852E-2	-1.013887E+1	9.478889E-3	2.200605E-2	6.951371E-2	2.401527E-2
10/19/2017  17:40:03.380632	2.784084E+0	1.319332E-2	1.646291E-2	-1.012359E+1	2.222863E-2	1.946206E-2	7.459952E-2	3.164702E-2
10/19/2017  17:40:03.381632	2.639190E+0	1.319332E-2	1.137250E-2	-1.012869E+1	2.732853E-2	1.946206E-2	6.951371E-2	1.383961E-2
10/19/2017  17:40:03.382632	1.797789E+0	1.828100E-2	1.391770E-2	-1.015415E+1	2.222863E-2	2.709402E-2	7.968532E-2	2.910311E-2
10/19/2017  17:40:03.383632	9.157160E-1	5.561801E-3	2.155331E-2	-1.013632E+1	1.202884E-2	1.437409E-2	7.968532E-2	1.638352E-2
10/19/2017  17:40:03.384632	-9.475684E-1	1.064948E-2	2.155331E-2	-1.014651E+1	2.732853E-2	6.742135E-3	7.968532E-2	3.673486E-2
10/19/2017  17:40:03.385632	-1.903359E+0	2.336868E-2	1.900811E-2	-1.014651E+1	3.242842E-2	2.455003E-2	6.951371E-2	2.401527E-2
10/19/2017  17:40:03.386632	-7.772545E-1	1.573716E-2	2.409852E-2	-1.014651E+1	1.457878E-2	3.472597E-2	7.968532E-2	2.147136E-2
10/19/2017  17:40:03.387632	-2.165185E+0	4.741205E-4	2.155331E-2	-1.013632E+1	1.202884E-2	1.946206E-2	7.205661E-2	3.927877E-2
10/19/2017  17:40:03.388632	-2.409217E+0	1.573716E-2	1.900811E-2	-1.014142E+1	2.222863E-2	2.455003E-2	7.459952E-2	2.910311E-2
10/19/2017  17:40:03.389632	-8.992704E-1	1.064948E-2	1.646291E-2	-1.013887E+1	2.477858E-2	2.709402E-2	7.205661E-2	2.401527E-2
10/19/2017  17:40:03.390632	-4.261718E-2	2.336868E-2	2.409852E-2	-1.013887E+1	1.457878E-2	2.200605E-2	6.697081E-2	3.164702E-2
10/19/2017  17:40:03.391632	-2.027630E-1	1.319332E-2	8.827299E-3	-1.012869E+1	9.478889E-3	1.691808E-2	7.459952E-2	3.164702E-2
10/19/2017  17:40:03.392632	9.741819E-1	2.082484E-2	1.646291E-2	-1.013887E+1	2.987847E-2	2.200605E-2	6.697081E-2	3.164702E-2
10/19/2017  17:40:03.393632	1.215672E+0	1.828100E-2	2.155331E-2	-1.014396E+1	2.222863E-2	3.981394E-2	7.205661E-2	3.164702E-2
10/19/2017  17:40:03.394632	-4.402143E+0	1.573716E-2	2.155331E-2	-1.013887E+1	1.457878E-2	1.946206E-2	7.968532E-2	2.910311E-2
10/19/2017  17:40:03.395632	-4.948673E+0	5.561801E-3	1.391770E-2	-1.014905E+1	2.222863E-2	9.286120E-3	7.459952E-2	2.401527E-2
10/19/2017  17:40:03.396632	-4.943589E+0	3.017961E-3	1.900811E-2	-1.016942E+1	2.987847E-2	1.946206E-2	7.714242E-2	2.655919E-2
10/19/2017  17:40:03.397632	-4.953757E+0	1.319332E-2	2.664372E-2	-1.015669E+1	1.457878E-2	1.946206E-2	7.968532E-2	3.164702E-2
10/19/2017  17:40:03.398632	1.848629E+0	3.017961E-3	1.646291E-2	-1.012359E+1	1.202884E-2	1.946206E-2	7.459952E-2	3.164702E-2
10/19/2017  17:40:03.399632	4.998164E+0	1.319332E-2	8.827299E-3	-1.013887E+1	2.732853E-2	2.709402E-2	6.442791E-2	2.401527E-2
10/19/2017  17:40:03.400632	5.005790E+0	1.573716E-2	2.409852E-2	-1.012869E+1	1.457878E-2	2.963800E-2	8.477112E-2	2.401527E-2
10/19/2017  17:40:03.401632	2.298563E+0	5.561801E-3	2.409852E-2	-1.011850E+1	1.457878E-2	1.691808E-2	8.477112E-2	3.673486E-2
10/19/2017  17:40:03.402632	-4.645888E-1	8.105642E-3	2.155331E-2	-1.013887E+1	2.222863E-2	1.946206E-2	6.697081E-2	2.910311E-2
10/19/2017  17:40:03.403632	9.210870E-2	2.082484E-2	1.137250E-2	-1.016178E+1	2.477858E-2	1.946206E-2	7.205661E-2	2.401527E-2
10/19/2017  17:40:03.404632	4.512643E+0	1.064948E-2	2.664372E-2	-1.013632E+1	1.457878E-2	2.200605E-2	7.968532E-2	2.655919E-2
10/19/2017  17:40:03.405632	3.315362E+0	3.017961E-3	1.900811E-2	-1.011086E+1	1.967868E-2	1.946206E-2	7.205661E-2	3.673486E-2
10/19/2017  17:40:03.406632	-1.077210E+0	1.573716E-2	8.827299E-3	-1.013632E+1	2.477858E-2	1.946206E-2	6.951371E-2	1.383961E-2
10/19/2017  17:40:03.407632	-1.567816E+0	2.082484E-2	2.155331E-2	-1.016687E+1	1.712873E-2	1.946206E-2	6.951371E-2	3.164702E-2
10/19/2017  17:40:03.408632	-1.173806E+0	5.561801E-3	2.664372E-2	-1.014651E+1	1.202884E-2	2.200605E-2	7.968532E-2	3.164702E-2
10/19/2017  17:40:03.409632	-1.677122E+0	1.064948E-2	1.900811E-2	-1.013632E+1	2.222863E-2	1.691808E-2	8.731403E-2	3.927877E-2
								
10/19/2017  17:40:03.410632	-8.585984E-1	1.573716E-2	1.646291E-2	-1.013887E+1	2.987847E-2	2.455003E-2	6.951371E-2	2.401527E-2
10/19/2017  17:40:03.411632	1.533421E+0	1.319332E-2	1.900811E-2	-1.014651E+1	1.712873E-2	2.963800E-2	7.205661E-2	2.401527E-2
10/19/2017  17:40:03.412632	1.698651E+0	1.319332E-2	1.137250E-2	-1.013378E+1	4.378993E-3	1.946206E-2	7.968532E-2	3.927877E-2
10/19/2017  17:40:03.413632	-1.925950E-1	1.319332E-2	1.137250E-2	-1.013378E+1	2.477858E-2	1.946206E-2	7.459952E-2	2.910311E-2
10/19/2017  17:40:03.414632	-2.485190E-1	1.064948E-2	8.827299E-3	-1.014142E+1	1.967868E-2	2.709402E-2	6.951371E-2	3.164702E-2
10/19/2017  17:40:03.415632	1.243634E+0	8.105642E-3	1.900811E-2	-1.014651E+1	1.457878E-2	2.455003E-2	7.205661E-2	3.164702E-2
10/19/2017  17:40:03.416632	-9.094384E-1	1.319332E-2	1.900811E-2	-1.013887E+1	2.222863E-2	4.198150E-3	7.205661E-2	2.401527E-2
10/19/2017  17:40:03.417632	1.919805E+0	8.105642E-3	1.900811E-2	-1.012869E+1	2.477858E-2	2.200605E-2	7.459952E-2	2.910311E-2
10/19/2017  17:40:03.418632	-6.041116E-2	1.064948E-2	1.646291E-2	-1.013123E+1	2.222863E-2	2.455003E-2	7.205661E-2	2.910311E-2
10/19/2017  17:40:03.419632	-2.716799E+0	4.741205E-4	1.391770E-2	-1.014651E+1	2.732853E-2	2.200605E-2	7.459952E-2	3.164702E-2
10/19/2017  17:40:03.420632	-1.956741E+0	1.064948E-2	2.155331E-2	-1.014905E+1	1.967868E-2	1.946206E-2	7.968532E-2	3.419094E-2
10/19/2017  17:40:03.421632	-1.137931E-1	1.319332E-2	2.155331E-2	-1.013887E+1	1.967868E-2	1.437409E-2	7.205661E-2	3.419094E-2
10/19/2017  17:40:03.422632	-1.237356E+0	2.082484E-2	1.900811E-2	-1.014905E+1	2.987847E-2	2.709402E-2	6.951371E-2	2.147136E-2
10/19/2017  17:40:03.423632	-4.261718E-2	1.828100E-2	2.664372E-2	-1.013887E+1	1.829045E-3	2.963800E-2	7.714242E-2	2.910311E-2
10/19/2017  17:40:03.424632	5.649203E-1	5.561801E-3	1.900811E-2	-1.012359E+1	1.457878E-2	1.437409E-2	7.714242E-2	3.673486E-2
10/19/2017  17:40:03.425632	3.109460E+0	5.561801E-3	1.391770E-2	-1.012614E+1	2.987847E-2	1.946206E-2	7.205661E-2	4.436661E-2
10/19/2017  17:40:03.426632	2.024027E+0	1.573716E-2	1.137250E-2	-1.013123E+1	2.987847E-2	2.963800E-2	7.714242E-2	2.910311E-2
10/19/2017  17:40:03.427632	-1.677122E+0	2.082484E-2	2.155331E-2	-1.014651E+1	1.457878E-2	2.709402E-2	8.222822E-2	2.147136E-2
10/19/2017  17:40:03.428632	2.578182E+0	8.105642E-3	2.155331E-2	-1.014905E+1	1.457878E-2	1.437409E-2	7.459952E-2	3.419094E-2
10/19/2017  17:40:03.429632	5.725463E-1	5.561801E-3	2.155331E-2	-1.012869E+1	2.222863E-2	1.946206E-2	7.205661E-2	3.673486E-2
10/19/2017  17:40:03.430632	-2.091467E+0	1.319332E-2	1.137250E-2	-1.013887E+1	2.477858E-2	1.946206E-2	6.188501E-2	2.401527E-2
10/19/2017  17:40:03.431632	-3.441268E+0	1.573716E-2	8.827299E-3	-1.015160E+1	1.967868E-2	2.963800E-2	7.459952E-2	2.147136E-2
10/19/2017  17:40:03.432632	-1.308532E+0	1.319332E-2	2.155331E-2	-1.015160E+1	2.222863E-2	2.455003E-2	6.442791E-2	3.164702E-2
10/19/2017  17:40:03.433632	1.800331E+0	1.319332E-2	3.173413E-2	-1.013632E+1	2.732853E-2	2.200605E-2	7.968532E-2	3.927877E-2
10/19/2017  17:40:03.434632	8.496240E-1	1.573716E-2	1.137250E-2	-1.012614E+1	2.477858E-2	1.437409E-2	6.951371E-2	3.419094E-2
10/19/2017  17:40:03.435632	-6.145667E-1	1.573716E-2	8.827299E-3	-1.014142E+1	3.752832E-2	2.455003E-2	6.697081E-2	3.419094E-2
10/19/2017  17:40:03.436632	3.110075E-2	1.064948E-2	1.900811E-2	-1.015669E+1	1.712873E-2	2.455003E-2	7.205661E-2	2.655919E-2
10/19/2017  17:40:03.437632	2.319186E-1	1.064948E-2	2.664372E-2	-1.013887E+1	1.712873E-2	1.946206E-2	8.222822E-2	3.419094E-2
10/19/2017  17:40:03.438632	-2.736519E-2	2.845637E-2	1.646291E-2	-1.013632E+1	2.222863E-2	1.946206E-2	7.205661E-2	3.419094E-2
10/19/2017  17:40:03.439632	-1.061671E-1	8.105642E-3	1.900811E-2	-1.013887E+1	2.222863E-2	1.691808E-2	7.459952E-2	4.182269E-2
10/19/2017  17:40:03.440632	4.581564E-1	4.117557E-2	1.137250E-2	-1.015160E+1	2.222863E-2	1.946206E-2	6.442791E-2	2.655919E-2
10/19/2017  17:40:03.441632	4.977828E+0	2.082484E-2	1.900811E-2	-1.013632E+1	2.477858E-2	2.963800E-2	7.714242E-2	2.655919E-2
10/19/2017  17:40:03.442632	1.973187E+0	1.319332E-2	1.900811E-2	-1.012359E+1	2.732853E-2	2.200605E-2	8.477112E-2	3.419094E-2
								
10/19/2017  17:40:03.443632	4.576193E+0	5.561801E-3	2.918892E-2	-1.013123E+1	1.457878E-2	1.183011E-2	7.968532E-2	3.673486E-2
10/19/2017  17:40:03.444632	-2.803227E+0	5.561801E-3	1.137250E-2	-1.014142E+1	2.222863E-2	1.691808E-2	6.951371E-2	2.655919E-2
10/19/2017  17:40:03.445632	2.509549E+0	1.319332E-2	1.137250E-2	-1.013632E+1	2.732853E-2	1.946206E-2	7.205661E-2	3.164702E-2
10/19/2017  17:40:03.446632	5.008332E+0	1.828100E-2	2.155331E-2	-1.014651E+1	2.222863E-2	2.963800E-2	7.714242E-2	3.673486E-2
10/19/2017  17:40:03.447632	4.960034E+0	1.319332E-2	1.646291E-2	-1.013887E+1	1.712873E-2	1.946206E-2	7.714242E-2	2.910311E-2
10/19/2017  17:40:03.448632	-1.763550E+0	1.319332E-2	2.155331E-2	-1.014142E+1	2.222863E-2	2.200605E-2	7.459952E-2	2.147136E-2
10/19/2017  17:40:03.449632	-3.087930E+0	8.105642E-3	1.391770E-2	-1.014142E+1	2.222863E-2	2.455003E-2	7.968532E-2	2.910311E-2
10/19/2017  17:40:03.450632	-6.806586E-1	1.828100E-2	1.900811E-2	-1.014396E+1	3.242842E-2	2.455003E-2	7.205661E-2	2.655919E-2
10/19/2017  17:40:03.451632	-3.423474E+0	1.319332E-2	1.900811E-2	-1.014905E+1	1.457878E-2	3.726996E-2	7.205661E-2	3.164702E-2
10/19/2017  17:40:03.452632	-1.926237E+0	3.017961E-3	1.391770E-2	-1.014142E+1	6.928941E-3	1.946206E-2	7.968532E-2	3.164702E-2
10/19/2017  17:40:03.453632	-1.366998E+0	8.105642E-3	2.409852E-2	-1.013632E+1	2.477858E-2	1.691808E-2	7.459952E-2	3.927877E-2
10/19/2017  17:40:03.454632	2.293766E-1	8.105642E-3	2.409852E-2	-1.012614E+1	3.497837E-2	1.691808E-2	7.205661E-2	3.673486E-2
10/19/2017  17:40:03.455632	-4.280127E+0	1.319332E-2	1.391770E-2	-1.014142E+1	2.477858E-2	3.218199E-2	6.697081E-2	2.655919E-2
10/19/2017  17:40:03.456632	-4.778359E+0	2.082484E-2	1.137250E-2	-1.015924E+1	2.222863E-2	1.691808E-2	8.222822E-2	2.401527E-2
10/19/2017  17:40:03.457632	4.825308E+0	1.828100E-2	2.664372E-2	-1.013632E+1	2.477858E-2	2.200605E-2	7.714242E-2	3.419094E-2
10/19/2017  17:40:03.458632	1.927431E+0	1.064948E-2	2.155331E-2	-1.012359E+1	3.497837E-2	2.709402E-2	6.951371E-2	3.419094E-2
10/19/2017  17:40:03.459632	1.996065E+0	3.100021E-2	8.827299E-3	-1.014142E+1	3.242842E-2	2.455003E-2	7.205661E-2	2.401527E-2
10/19/2017  17:40:03.460632	3.109460E+0	2.082484E-2	1.646291E-2	-1.014396E+1	1.967868E-2	2.455003E-2	7.459952E-2	2.147136E-2
10/19/2017  17:40:03.461632	1.685941E+0	-2.069720E-3	2.409852E-2	-1.014651E+1	4.378993E-3	1.946206E-2	7.968532E-2	2.910311E-2
10/19/2017  17:40:03.462632	-4.010389E-1	3.017961E-3	2.155331E-2	-1.013378E+1	1.967868E-2	1.691808E-2	7.459952E-2	3.927877E-2
10/19/2017  17:40:03.463632	-1.026370E+0	1.064948E-2	1.137250E-2	-1.013632E+1	2.987847E-2	1.946206E-2	7.205661E-2	2.655919E-2
10/19/2017  17:40:03.464632	-1.707626E+0	2.082484E-2	1.646291E-2	-1.015160E+1	2.222863E-2	2.455003E-2	7.205661E-2	2.910311E-2
10/19/2017  17:40:03.465632	-2.798143E+0	1.064948E-2	2.409852E-2	-1.014905E+1	2.222863E-2	2.709402E-2	7.714242E-2	3.927877E-2
10/19/2017  17:40:03.466632	-4.836825E+0	1.064948E-2	2.409852E-2	-1.014396E+1	1.967868E-2	1.691808E-2	7.459952E-2	3.673486E-2
10/19/2017  17:40:03.467632	-4.943589E+0	1.064948E-2	1.900811E-2	-1.015160E+1	2.222863E-2	2.200605E-2	7.459952E-2	2.401527E-2
10/19/2017  17:40:03.468632	-3.314168E+0	1.064948E-2	8.827299E-3	-1.014651E+1	2.477858E-2	1.691808E-2	6.188501E-2	2.910311E-2
10/19/2017  17:40:03.469632	-4.849248E-1	1.573716E-2	1.900811E-2	-1.014651E+1	2.222863E-2	2.455003E-2	7.205661E-2	1.638352E-2
10/19/2017  17:40:03.470632	3.579730E+0	2.082484E-2	2.155331E-2	-1.014905E+1	1.712873E-2	1.691808E-2	8.731403E-2	2.910311E-2
10/19/2017  17:40:03.471632	-6.349026E-1	5.561801E-3	2.918892E-2	-1.013123E+1	1.457878E-2	9.286120E-3	7.968532E-2	3.927877E-2
10/19/2017  17:40:03.472632	-7.747125E-1	3.017961E-3	1.137250E-2	-1.013632E+1	2.987847E-2	1.946206E-2	6.951371E-2	3.164702E-2
10/19/2017  17:40:03.473632	2.967108E+0	1.573716E-2	8.827299E-3	-1.015160E+1	2.477858E-2	2.963800E-2	6.951371E-2	3.164702E-2
10/19/2017  17:40:03.474632	1.505746E-1	1.319332E-2	1.646291E-2	-1.013378E+1	2.477858E-2	1.946206E-2	7.968532E-2	2.910311E-2
10/19/2017  17:40:03.475632	6.923072E-2	1.573716E-2	1.137250E-2	-1.013887E+1	2.222863E-2	2.963800E-2	7.459952E-2	3.419094E-2
								
10/19/2017  17:40:03.476632	-1.008576E+0	8.105642E-3	1.900811E-2	-1.013632E+1	2.222863E-2	1.946206E-2	7.459952E-2	3.419094E-2
10/19/2017  17:40:03.477632	2.349403E+0	1.319332E-2	1.137250E-2	-1.013887E+1	1.712873E-2	2.963800E-2	6.951371E-2	2.655919E-2
10/19/2017  17:40:03.478632	5.000706E+0	1.573716E-2	1.900811E-2	-1.014142E+1	2.222863E-2	2.709402E-2	8.222822E-2	2.655919E-2
10/19/2017  17:40:03.479632	4.835476E+0	1.319332E-2	2.409852E-2	-1.012614E+1	1.457878E-2	3.472597E-2	7.968532E-2	3.927877E-2
10/19/2017  17:40:03.480632	1.983355E+0	4.741205E-4	1.900811E-2	-1.012614E+1	1.457878E-2	1.437409E-2	7.205661E-2	3.164702E-2
10/19/2017  17:40:03.481632	-6.679486E-1	1.319332E-2	1.137250E-2	-1.014142E+1	2.987847E-2	1.946206E-2	6.697081E-2	2.147136E-2
10/19/2017  17:40:03.482632	-3.415848E+0	4.117557E-2	1.900811E-2	-1.016178E+1	2.987847E-2	2.455003E-2	7.714242E-2	2.910311E-2
10/19/2017  17:40:03.483632	-2.454973E+0	1.064948E-2	2.664372E-2	-1.014142E+1	1.457878E-2	2.455003E-2	7.968532E-2	3.164702E-2
10/19/2017  17:40:03.484632	-7.264146E-1	5.561801E-3	2.155331E-2	-1.013378E+1	1.457878E-2	1.437409E-2	7.459952E-2	3.164702E-2
10/19/2017  17:40:03.485632	-2.942750E-1	1.828100E-2	8.827299E-3	-1.014142E+1	2.477858E-2	2.200605E-2	7.205661E-2	2.401527E-2
10/19/2017  17:40:03.486632	2.141246E-1	1.064948E-2	2.155331E-2	-1.013632E+1	2.477858E-2	2.455003E-2	7.714242E-2	3.164702E-2
10/19/2017  17:40:03.487632	8.674180E-1	1.064948E-2	2.155331E-2	-1.013378E+1	2.222863E-2	2.200605E-2	7.459952E-2	2.910311E-2
10/19/2017  17:40:03.488632	6.132182E-1	1.319332E-2	2.664372E-2	-1.013632E+1	1.457878E-2	1.946206E-2	6.951371E-2	2.910311E-2
10/19/2017  17:40:03.489632	4.098584E-1	1.064948E-2	1.391770E-2	-1.013887E+1	2.477858E-2	9.286120E-3	7.968532E-2	3.164702E-2
10/19/2017  17:40:03.490632	3.564765E-1	1.319332E-2	1.646291E-2	-1.013887E+1	2.987847E-2	2.455003E-2	6.951371E-2	4.182269E-2
10/19/2017  17:40:03.491632	-4.925508E-1	1.828100E-2	1.900811E-2	-1.012105E+1	1.967868E-2	3.218199E-2	7.714242E-2	2.401527E-2
10/19/2017  17:40:03.492632	-1.583068E+0	1.828100E-2	2.155331E-2	-1.013887E+1	1.457878E-2	1.691808E-2	7.968532E-2	3.164702E-2
10/19/2017  17:40:03.493632	-3.072678E+0	5.561801E-3	1.646291E-2	-1.015160E+1	1.967868E-2	9.286120E-3	6.442791E-2	3.673486E-2
10/19/2017  17:40:03.494632	-3.321794E+0	5.561801E-3	8.827299E-3	-1.014142E+1	2.732853E-2	1.946206E-2	6.697081E-2	3.164702E-2
10/19/2017  17:40:03.495632	-4.925795E+0	2.336868E-2	1.900811E-2	-1.014905E+1	2.222863E-2	2.963800E-2	7.714242E-2	2.401527E-2
10/19/2017  17:40:03.496632	-4.951215E+0	4.741205E-4	2.918892E-2	-1.014651E+1	1.967868E-2	2.200605E-2	7.968532E-2	3.419094E-2
10/19/2017  17:40:03.497632	-4.905459E+0	4.741205E-4	1.646291E-2	-1.014651E+1	2.222863E-2	1.946206E-2	6.442791E-2	3.164702E-2
10/19/2017  17:40:03.498632	1.014854E+0	2.082484E-2	1.191689E-3	-1.013887E+1	2.477858E-2	1.691808E-2	6.951371E-2	2.401527E-2
10/19/2017  17:40:03.499632	4.998164E+0	2.591253E-2	1.646291E-2	-1.014142E+1	2.477858E-2	2.709402E-2	8.222822E-2	2.655919E-2
10/19/2017  17:40:03.500632	4.990538E+0	1.064948E-2	1.900811E-2	-1.012614E+1	3.242842E-2	3.726996E-2	7.205661E-2	3.419094E-2
10/19/2017  17:40:03.501632	6.488062E-1	4.741205E-4	1.900811E-2	-1.013632E+1	2.222863E-2	1.946206E-2	7.459952E-2	2.655919E-2
10/19/2017  17:40:03.502632	1.276967E-1	1.828100E-2	1.646291E-2	-1.015160E+1	2.477858E-2	1.691808E-2	7.459952E-2	3.419094E-2
10/19/2017  17:40:03.503632	2.496839E+0	8.105642E-3	1.900811E-2	-1.015415E+1	1.202884E-2	2.200605E-2	8.222822E-2	3.419094E-2
10/19/2017  17:40:03.504632	-3.603669E-1	8.105642E-3	2.155331E-2	-1.013887E+1	2.477858E-2	1.691808E-2	7.459952E-2	3.927877E-2
10/19/2017  17:40:03.505632	6.259282E-1	1.064948E-2	1.391770E-2	-1.014905E+1	2.477858E-2	2.963800E-2	7.205661E-2	2.401527E-2
10/19/2017  17:40:03.506632	1.248718E+0	2.082484E-2	2.409852E-2	-1.014651E+1	1.457878E-2	2.455003E-2	8.222822E-2	2.655919E-2
10/19/2017  17:40:03.507632	7.301501E-1	1.319332E-2	2.409852E-2	-1.013632E+1	1.457878E-2	1.691808E-2	7.714242E-2	4.436661E-2
10/19/2017  17:40:03.508632	2.379907E+0	8.105642E-3	1.900811E-2	-1.011596E+1	2.987847E-2	1.946206E-2	6.697081E-2	3.419094E-2
								
10/19/2017  17:40:03.509632	4.741422E+0	1.573716E-2	1.391770E-2	-1.013632E+1	2.732853E-2	2.963800E-2	7.205661E-2	1.383961E-2
10/19/2017  17:40:03.510632	-6.196507E-1	1.573716E-2	1.646291E-2	-1.013378E+1	1.712873E-2	1.183011E-2	7.968532E-2	3.164702E-2
10/19/2017  17:40:03.511632	-4.938505E+0	1.064948E-2	1.900811E-2	-1.014396E+1	2.477858E-2	1.691808E-2	7.205661E-2	3.164702E-2
10/19/2017  17:40:03.512632	-3.189610E+0	1.828100E-2	1.137250E-2	-1.014651E+1	2.732853E-2	2.455003E-2	7.205661E-2	2.910311E-2
10/19/2017  17:40:03.513632	-5.001768E-1	2.082484E-2	2.409852E-2	-1.014651E+1	2.222863E-2	2.455003E-2	7.459952E-2	2.401527E-2
10/19/2017  17:40:03.514632	1.202962E+0	1.319332E-2	2.664372E-2	-1.015160E+1	1.457878E-2	1.691808E-2	7.459952E-2	3.673486E-2
10/19/2017  17:40:03.515632	1.345314E+0	4.741205E-4	2.409852E-2	-1.012869E+1	1.712873E-2	2.200605E-2	7.205661E-2	3.673486E-2
10/19/2017  17:40:03.516632	8.648760E-1	1.828100E-2	1.137250E-2	-1.013632E+1	2.987847E-2	2.455003E-2	7.714242E-2	2.401527E-2
10/19/2017  17:40:03.517632	-1.984703E+0	2.336868E-2	1.646291E-2	-1.014142E+1	2.732853E-2	2.963800E-2	8.222822E-2	2.910311E-2
10/19/2017  17:40:03.518632	-2.968457E+0	5.561801E-3	2.664372E-2	-1.013887E+1	1.457878E-2	1.691808E-2	7.968532E-2	3.927877E-2
10/19/2017  17:40:03.519632	-1.493811E-1	8.105642E-3	1.137250E-2	-1.012869E+1	1.967868E-2	4.198150E-3	7.205661E-2	3.419094E-2
10/19/2017  17:40:03.520632	3.597524E+0	2.336868E-2	1.646291E-2	-1.013632E+1	2.732853E-2	2.455003E-2	7.714242E-2	2.655919E-2
10/19/2017  17:40:03.521632	2.451083E+0	1.064948E-2	2.409852E-2	-1.013378E+1	1.712873E-2	2.709402E-2	8.222822E-2	3.164702E-2
10/19/2017  17:40:03.522632	1.622391E+0	-2.069720E-3	1.900811E-2	-1.012614E+1	1.967868E-2	1.183011E-2	7.205661E-2	3.419094E-2
10/19/2017  17:40:03.523632	4.614323E+0	1.573716E-2	1.137250E-2	-1.013378E+1	2.477858E-2	6.742135E-3	7.714242E-2	2.910311E-2
10/19/2017  17:40:03.524632	3.183465E-1	1.319332E-2	2.409852E-2	-1.015160E+1	2.222863E-2	2.963800E-2	8.222822E-2	3.419094E-2
10/19/2017  17:40:03.525632	-3.504818E+0	8.105642E-3	1.900811E-2	-1.013632E+1	1.967868E-2	1.946206E-2	7.459952E-2	4.182269E-2
10/19/2017  17:40:03.526632	-2.447347E+0	1.319332E-2	2.155331E-2	-1.013632E+1	1.712873E-2	2.200605E-2	6.697081E-2	2.655919E-2
10/19/2017  17:40:03.527632	-1.931321E+0	1.828100E-2	1.646291E-2	-1.015415E+1	2.222863E-2	2.455003E-2	7.205661E-2	3.164702E-2
10/19/2017  17:40:03.528632	5.166223E-1	1.319332E-2	2.664372E-2	-1.013632E+1	9.478889E-3	2.455003E-2	7.714242E-2	4.182269E-2
10/19/2017  17:40:03.529632	1.393612E+0	1.064948E-2	1.137250E-2	-1.012614E+1	2.222863E-2	1.691808E-2	7.968532E-2	3.164702E-2
10/19/2017  17:40:03.530632	-6.043987E-1	1.064948E-2	1.900811E-2	-1.013632E+1	9.478889E-3	1.946206E-2	6.951371E-2	2.147136E-2
10/19/2017  17:40:03.531632	3.742417E+0	1.573716E-2	1.646291E-2	-1.015415E+1	1.457878E-2	2.200605E-2	8.222822E-2	2.147136E-2
10/19/2017  17:40:03.532632	2.852718E+0	1.064948E-2	2.664372E-2	-1.012614E+1	1.457878E-2	1.183011E-2	8.222822E-2	4.945444E-2
10/19/2017  17:40:03.533632	-3.019009E-1	8.105642E-3	1.900811E-2	-1.010577E+1	2.987847E-2	2.200605E-2	6.188501E-2	3.673486E-2
10/19/2017  17:40:03.534632	-2.254155E+0	1.573716E-2	1.391770E-2	-1.014905E+1	3.242842E-2	2.455003E-2	6.697081E-2	2.147136E-2
10/19/2017  17:40:03.535632	-1.417838E+0	1.319332E-2	2.409852E-2	-1.015415E+1	1.457878E-2	2.963800E-2	7.714242E-2	2.910311E-2
10/19/2017  17:40:03.536632	-9.399424E-1	1.064948E-2	1.646291E-2	-1.013632E+1	9.478889E-3	1.946206E-2	8.222822E-2	3.673486E-2
10/19/2017  17:40:03.537632	-2.737135E+0	1.064948E-2	1.137250E-2	-1.012869E+1	2.732853E-2	3.472597E-2	7.714242E-2	2.910311E-2
10/19/2017  17:40:03.538632	-1.987245E+0	2.336868E-2	1.137250E-2	-1.014905E+1	1.967868E-2	2.455003E-2	7.459952E-2	3.164702E-2
10/19/2017  17:40:03.539632	-4.671308E-1	1.064948E-2	2.664372E-2	-1.014396E+1	1.712873E-2	1.946206E-2	7.459952E-2	3.164702E-2
10/19/2017  17:40:03.540632	3.099292E+0	5.561801E-3	3.173413E-2	-1.012614E+1	1.457878E-2	2.455003E-2	7.459952E-2	3.164702E-2
10/19/2017  17:40:03.541632	5.021042E+0	1.828100E-2	1.391770E-2	-1.011850E+1	2.732853E-2	1.946206E-2	6.951371E-2	3.164702E-2
								
10/19/2017  17:40:03.542632	5.003248E+0	1.319332E-2	1.646291E-2	-1.012869E+1	3.497837E-2	2.709402E-2	7.968532E-2	2.910311E-2
10/19/2017  17:40:03.543632	4.937156E+0	-2.069720E-3	2.155331E-2	-1.013123E+1	9.478889E-3	2.200605E-2	7.714242E-2	3.673486E-2
10/19/2017  17:40:03.544632	-3.215030E+0	5.561801E-3	2.155331E-2	-1.013632E+1	1.967868E-2	6.742135E-3	7.459952E-2	3.927877E-2
10/19/2017  17:40:03.545632	-4.933421E+0	1.828100E-2	1.137250E-2	-1.014396E+1	3.242842E-2	1.946206E-2	6.951371E-2	3.419094E-2
10/19/2017  17:40:03.546632	-4.908001E+0	1.828100E-2	1.900811E-2	-1.016178E+1	1.967868E-2	6.742135E-3	6.951371E-2	1.892744E-2
10/19/2017  17:40:03.547632	-1.308532E+0	3.017961E-3	2.664372E-2	-1.013887E+1	9.478889E-3	1.946206E-2	8.222822E-2	2.655919E-2
10/19/2017  17:40:03.548632	5.700043E-1	1.064948E-2	1.646291E-2	-1.013887E+1	2.222863E-2	1.183011E-2	7.714242E-2	3.164702E-2
10/19/2017  17:40:03.549632	-1.519231E-1	1.319332E-2	1.391770E-2	-1.013378E+1	2.987847E-2	2.200605E-2	8.222822E-2	3.927877E-2
10/19/2017  17:40:03.550632	-1.311074E+0	1.828100E-2	2.155331E-2	-1.014142E+1	1.457878E-2	2.963800E-2	7.205661E-2	2.147136E-2
10/19/2017  17:40:03.551632	-1.189058E+0	8.105642E-3	2.409852E-2	-1.013378E+1	1.712873E-2	1.691808E-2	8.731403E-2	3.164702E-2
10/19/2017  17:40:03.552632	1.215672E+0	1.064948E-2	3.736893E-3	-1.014651E+1	2.732853E-2	9.286120E-3	6.951371E-2	2.910311E-2
10/19/2017  17:40:03.553632	1.355482E+0	2.591253E-2	1.137250E-2	-1.014142E+1	2.732853E-2	2.963800E-2	7.459952E-2	3.419094E-2
10/19/2017  17:40:03.554632	-1.138218E+0	1.319332E-2	3.173413E-2	-1.012614E+1	1.457878E-2	2.455003E-2	8.222822E-2	3.164702E-2
10/19/2017  17:40:03.555632	-4.925795E+0	1.064948E-2	1.137250E-2	-1.014142E+1	2.732853E-2	1.437409E-2	6.697081E-2	3.673486E-2
10/19/2017  17:40:03.556632	-4.902917E+0	2.082484E-2	1.391770E-2	-1.014651E+1	3.242842E-2	1.946206E-2	6.697081E-2	3.164702E-2
10/19/2017  17:40:03.557632	1.136870E+0	1.573716E-2	2.664372E-2	-1.014142E+1	1.712873E-2	2.200605E-2	7.459952E-2	3.164702E-2
10/19/2017  17:40:03.558632	4.944782E+0	5.561801E-3	1.900811E-2	-1.012869E+1	1.967868E-2	2.455003E-2	7.459952E-2	3.927877E-2
10/19/2017  17:40:03.559632	5.010874E+0	2.336868E-2	6.282096E-3	-1.013123E+1	2.987847E-2	1.691808E-2	6.951371E-2	2.147136E-2
10/19/2017  17:40:03.560632	3.160300E+0	1.573716E-2	1.391770E-2	-1.013887E+1	1.712873E-2	2.455003E-2	7.714242E-2	1.892744E-2
10/19/2017  17:40:03.561632	-1.974535E+0	8.105642E-3	1.391770E-2	-1.013378E+1	6.928941E-3	2.455003E-2	8.222822E-2	3.927877E-2
10/19/2017  17:40:03.562632	-1.346662E+0	8.105642E-3	1.137250E-2	-1.013887E+1	2.987847E-2	1.691808E-2	6.697081E-2	3.164702E-2
10/19/2017  17:40:03.563632	-4.900088E-1	1.828100E-2	1.137250E-2	-1.014905E+1	3.497837E-2	1.946206E-2	7.459952E-2	2.147136E-2
10/19/2017  17:40:03.564632	1.708819E+0	1.319332E-2	1.900811E-2	-1.014142E+1	1.712873E-2	2.200605E-2	7.714242E-2	3.164702E-2
10/19/2017  17:40:03.565632	1.741865E+0	8.105642E-3	1.646291E-2	-1.012614E+1	2.477858E-2	2.963800E-2	7.459952E-2	3.927877E-2
10/19/2017  17:40:03.566632	6.005082E-1	2.591253E-2	1.137250E-2	-1.013887E+1	3.497837E-2	3.218199E-2	6.951371E-2	2.147136E-2
10/19/2017  17:40:03.567632	2.911184E+0	1.828100E-2	2.155331E-2	-1.014651E+1	2.477858E-2	2.709402E-2	7.968532E-2	3.164702E-2
10/19/2017  17:40:03.568632	-2.421927E+0	-9.701241E-3	2.155331E-2	-1.015160E+1	1.712873E-2	1.437409E-2	7.968532E-2	3.673486E-2
10/19/2017  17:40:03.569632	4.080503E+0	1.064948E-2	1.137250E-2	-1.013632E+1	2.477858E-2	2.455003E-2	6.951371E-2	3.164702E-2
10/19/2017  17:40:03.570632	3.894937E+0	2.082484E-2	2.155331E-2	-1.014142E+1	2.987847E-2	2.963800E-2	8.222822E-2	3.164702E-2
10/19/2017  17:40:03.571632	-4.981719E+0	1.064948E-2	2.918892E-2	-1.013632E+1	1.457878E-2	2.709402E-2	7.714242E-2	3.673486E-2
10/19/2017  17:40:03.572632	2.463793E+0	8.105642E-3	1.137250E-2	-1.012869E+1	2.222863E-2	1.691808E-2	6.442791E-2	3.419094E-2
10/19/2017  17:40:03.573632	4.777010E+0	1.828100E-2	1.137250E-2	-1.013632E+1	2.477858E-2	2.455003E-2	7.714242E-2	2.147136E-2
10/19/2017  17:40:03.574632	2.214677E+0	1.319332E-2	2.409852E-2	-1.013378E+1	1.457878E-2	2.200605E-2	7.714242E-2	4.691052E-2
								
10/19/2017  17:40:03.575632	-5.078028E-1	1.064948E-2	2.409852E-2	-1.015415E+1	1.967868E-2	2.200605E-2	7.459952E-2	2.910311E-2
10/19/2017  17:40:03.576632	-1.161096E+0	1.064948E-2	1.900811E-2	-1.014396E+1	2.477858E-2	1.946206E-2	6.951371E-2	3.164702E-2
10/19/2017  17:40:03.577632	2.194341E+0	2.082484E-2	1.900811E-2	-1.013632E+1	2.222863E-2	1.437409E-2	6.442791E-2	2.655919E-2
10/19/2017  17:40:03.578632	2.011317E+0	8.105642E-3	2.155331E-2	-1.013887E+1	1.712873E-2	2.200605E-2	8.222822E-2	4.182269E-2
10/19/2017  17:40:03.579632	1.701193E+0	8.105642E-3	1.900811E-2	-1.013123E+1	2.222863E-2	2.200605E-2	8.731403E-2	2.910311E-2
10/19/2017  17:40:03.580632	8.267460E-1	1.064948E-2	3.736893E-3	-1.013378E+1	1.457878E-2	1.691808E-2	6.951371E-2	2.655919E-2
10/19/2017  17:40:03.581632	4.942240E+0	2.082484E-2	1.900811E-2	-1.014142E+1	2.222863E-2	2.709402E-2	7.714242E-2	2.655919E-2
10/19/2017  17:40:03.582632	4.825308E+0	1.319332E-2	4.191494E-2	-1.013378E+1	1.457878E-2	2.963800E-2	7.459952E-2	3.927877E-2
10/19/2017  17:40:03.583632	-4.943589E+0	5.561801E-3	1.900811E-2	-1.014142E+1	1.712873E-2	1.183011E-2	7.459952E-2	3.673486E-2
10/19/2017  17:40:03.584632	-4.938505E+0	8.105642E-3	1.137250E-2	-1.014651E+1	2.732853E-2	2.455003E-2	6.697081E-2	2.910311E-2
10/19/2017  17:40:03.585632	-4.638549E+0	1.319332E-2	1.137250E-2	-1.016433E+1	2.222863E-2	2.200605E-2	6.697081E-2	2.655919E-2
10/19/2017  17:40:03.586632	-2.226193E+0	2.082484E-2	2.409852E-2	-1.015415E+1	1.457878E-2	1.691808E-2	8.222822E-2	3.419094E-2
10/19/2017  17:40:03.587632	-3.939500E+0	2.082484E-2	2.664372E-2	-1.013123E+1	1.457878E-2	1.946206E-2	7.459952E-2	3.927877E-2
10/19/2017  17:40:03.588632	1.627475E+0	1.064948E-2	1.900811E-2	-1.013632E+1	2.222863E-2	1.183011E-2	7.205661E-2	2.910311E-2
10/19/2017  17:40:03.589632	8.597920E-1	4.741205E-4	1.900811E-2	-1.013378E+1	2.477858E-2	2.963800E-2	7.205661E-2	2.910311E-2
10/19/2017  17:40:03.590632	-3.095269E-1	1.319332E-2	1.646291E-2	-1.013378E+1	2.222863E-2	2.200605E-2	7.459952E-2	3.419094E-2
10/19/2017  17:40:03.591632	-3.014212E+0	1.573716E-2	1.646291E-2	-1.014651E+1	2.987847E-2	1.183011E-2	8.222822E-2	3.419094E-2
10/19/2017  17:40:03.592632	-1.669496E+0	5.561801E-3	6.282096E-3	-1.013887E+1	2.732853E-2	1.691808E-2	7.205661E-2	3.673486E-2
10/19/2017  17:40:03.593632	4.972744E+0	1.064948E-2	1.391770E-2	-1.013378E+1	1.712873E-2	2.963800E-2	6.442791E-2	2.910311E-2
10/19/2017  17:40:03.594632	4.962576E+0	2.082484E-2	1.646291E-2	-1.014396E+1	2.222863E-2	2.455003E-2	7.714242E-2	2.401527E-2
10/19/2017  17:40:03.595632	-4.170821E+0	1.319332E-2	2.664372E-2	-1.014142E+1	1.967868E-2	2.200605E-2	7.968532E-2	4.691052E-2
10/19/2017  17:40:03.596632	6.818522E-1	5.561801E-3	1.646291E-2	-1.013378E+1	2.222863E-2	1.437409E-2	6.697081E-2	3.673486E-2
10/19/2017  17:40:03.597632	-2.439721E+0	8.105642E-3	1.137250E-2	-1.014905E+1	2.477858E-2	2.200605E-2	6.697081E-2	2.655919E-2
10/19/2017  17:40:03.598632	-7.899645E-1	2.082484E-2	2.155331E-2	-1.012614E+1	1.967868E-2	2.963800E-2	7.714242E-2	2.401527E-2
10/19/2017  17:40:03.599632	1.373276E+0	2.082484E-2	2.155331E-2	-1.014142E+1	2.222863E-2	1.691808E-2	7.459952E-2	3.419094E-2
10/19/2017  17:40:03.600632	-6.704906E-1	1.064948E-2	1.646291E-2	-1.013632E+1	1.712873E-2	2.709402E-2	6.188501E-2	3.419094E-2
10/19/2017  17:40:03.601632	-1.509350E+0	5.561801E-3	6.282096E-3	-1.013632E+1	1.712873E-2	2.455003E-2	7.205661E-2	3.164702E-2
10/19/2017  17:40:03.602632	-1.933863E+0	1.319332E-2	1.137250E-2	-1.013887E+1	2.987847E-2	2.200605E-2	6.951371E-2	3.419094E-2
10/19/2017  17:40:03.603632	-2.482935E+0	1.828100E-2	3.173413E-2	-1.014651E+1	2.987847E-2	3.981394E-2	7.459952E-2	3.164702E-2
10/19/2017  17:40:03.604632	-3.207404E+0	2.336868E-2	2.664372E-2	-1.014905E+1	1.202884E-2	2.709402E-2	7.714242E-2	2.910311E-2
10/19/2017  17:40:03.605632	-3.489566E+0	1.319332E-2	1.391770E-2	-1.015160E+1	1.202884E-2	1.183011E-2	7.205661E-2	3.673486E-2
10/19/2017  17:40:03.606632	-3.385344E+0	1.064948E-2	1.391770E-2	-1.014142E+1	3.242842E-2	1.691808E-2	6.951371E-2	3.927877E-2
10/19/2017  17:40:03.607632	-1.067042E+0	1.828100E-2	1.137250E-2	-1.014142E+1	3.242842E-2	4.235793E-2	6.697081E-2	2.910311E-2
								
10/19/2017  17:40:03.608632	-7.467505E-1	2.845637E-2	2.409852E-2	-1.013378E+1	1.967868E-2	2.963800E-2	7.459952E-2	2.401527E-2
10/19/2017  17:40:03.609632	-1.740672E+0	1.064948E-2	1.900811E-2	-1.014142E+1	1.712873E-2	1.437409E-2	7.714242E-2	3.419094E-2
10/19/2017  17:40:03.610632	3.190804E+0	5.561801E-3	1.646291E-2	-1.014396E+1	2.222863E-2	1.183011E-2	7.205661E-2	4.182269E-2
10/19/2017  17:40:03.611632	5.003248E+0	1.064948E-2	1.646291E-2	-1.013123E+1	2.222863E-2	1.946206E-2	7.714242E-2	2.910311E-2
10/19/2017  17:40:03.612632	5.008332E+0	1.064948E-2	1.391770E-2	-1.012359E+1	2.477858E-2	1.946206E-2	7.205661E-2	2.147136E-2
10/19/2017  17:40:03.613632	3.366202E+0	1.573716E-2	1.391770E-2	-1.014651E+1	1.712873E-2	2.963800E-2	7.205661E-2	2.147136E-2
10/19/2017  17:40:03.614632	-2.838815E+0	5.561801E-3	2.664372E-2	-1.014142E+1	1.712873E-2	1.946206E-2	7.714242E-2	3.419094E-2
10/19/2017  17:40:03.615632	-3.446352E+0	1.064948E-2	1.900811E-2	-1.013887E+1	2.222863E-2	1.946206E-2	7.459952E-2	2.910311E-2
10/19/2017  17:40:03.616632	6.945622E-1	1.319332E-2	6.282096E-3	-1.014142E+1	2.732853E-2	1.946206E-2	7.459952E-2	2.401527E-2
10/19/2017  17:40:03.617632	-4.442528E-1	1.828100E-2	1.900811E-2	-1.015669E+1	2.732853E-2	2.200605E-2	6.697081E-2	2.655919E-2
10/19/2017  17:40:03.618632	-1.870314E+0	1.319332E-2	2.918892E-2	-1.014651E+1	1.712873E-2	2.963800E-2	7.968532E-2	3.164702E-2
10/19/2017  17:40:03.619632	4.886603E-1	1.319332E-2	2.155331E-2	-1.014905E+1	1.457878E-2	1.946206E-2	8.477112E-2	3.927877E-2
10/19/2017  17:40:03.620632	1.879133E+0	1.828100E-2	1.137250E-2	-1.012869E+1	2.477858E-2	1.691808E-2	7.459952E-2	3.927877E-2
10/19/2017  17:40:03.621632	1.741865E+0	1.828100E-2	1.391770E-2	-1.013887E+1	1.967868E-2	2.963800E-2	6.188501E-2	2.910311E-2
10/19/2017  17:40:03.622632	-6.295316E-2	1.319332E-2	1.391770E-2	-1.013632E+1	1.967868E-2	2.455003E-2	7.459952E-2	3.164702E-2
10/19/2017  17:40:03.623632	-1.733046E+0	1.828100E-2	1.900811E-2	-1.014396E+1	2.222863E-2	2.455003E-2	7.968532E-2	3.673486E-2
10/19/2017  17:40:03.624632	-2.754929E+0	1.828100E-2	3.427933E-2	-1.014396E+1	2.477858E-2	1.437409E-2	7.205661E-2	2.910311E-2
10/19/2017  17:40:03.625632	-1.903359E+0	1.573716E-2	1.900811E-2	-1.013887E+1	1.967868E-2	2.200605E-2	6.951371E-2	2.401527E-2
10/19/2017  17:40:03.626632	1.523253E+0	1.573716E-2	8.827299E-3	-1.013887E+1	6.928941E-3	1.437409E-2	7.968532E-2	2.401527E-2
10/19/2017  17:40:03.627632	4.545689E+0	1.064948E-2	2.664372E-2	-1.012614E+1	2.477858E-2	1.437409E-2	7.459952E-2	4.182269E-2
10/19/2017  17:40:03.628632	4.835476E+0	1.064948E-2	1.137250E-2	-1.013123E+1	3.752832E-2	3.726996E-2	6.697081E-2	3.673486E-2
10/19/2017  17:40:03.629632	4.047457E+0	2.591253E-2	1.900811E-2	-1.012359E+1	1.712873E-2	2.200605E-2	7.205661E-2	2.401527E-2
10/19/2017  17:40:03.630632	-5.789787E-1	1.319332E-2	2.155331E-2	-1.014651E+1	1.457878E-2	1.691808E-2	8.222822E-2	2.401527E-2
10/19/2017  17:40:03.631632	-2.147391E+0	1.828100E-2	2.409852E-2	-1.014142E+1	1.712873E-2	1.183011E-2	7.968532E-2	3.419094E-2
10/19/2017  17:40:03.632632	-2.040627E+0	3.017961E-3	2.409852E-2	-1.013887E+1	2.222863E-2	1.437409E-2	6.697081E-2	3.927877E-2
