Parameters: 	Upper Cutoff:  500	Lower Cutoff: 20	Sample Rate (Hz): 1000	Frames Per Second30	Display Window Size (S)100	MVC Window Size (s): 100	Seconds To Acquire MVC: 3	Display Channel: 0
waveform	[0]	[1]	[2]	[3]	[4]	[5]	[6]	[7]
t0	10/19/2017  17:33:02.332390	10/19/2017  17:33:02.332390	10/19/2017  17:33:02.332390	10/19/2017  17:33:02.332390	10/19/2017  17:33:02.332390	10/19/2017  17:33:02.332390	10/19/2017  17:33:02.332390	10/19/2017  17:33:02.332390
delta t	0.001000	0.001000	0.001000	0.001000	0.001000	0.001000	0.001000	0.001000

time	Y[0]	Y[1]	Y[2]	Y[3]	Y[4]	Y[5]	Y[6]	Y[7]
10/19/2017  17:33:02.303023	2.009550E-1	7.432235E-4	2.562852E-3	3.952987E-3	3.083054E-3	6.297365E-3	4.845526E-3	3.840911E-3
10/19/2017  17:33:02.304023	5.389278E-1	3.431857E-4	1.098351E-2	2.030306E-3	2.338028E-3	2.654001E-3	1.436799E-3	6.421413E-3
10/19/2017  17:33:02.305023	5.573571E-1	2.148013E-3	1.445830E-3	2.344151E-3	1.251551E-2	4.390265E-3	3.249050E-3	9.226039E-3
10/19/2017  17:33:02.306023	3.250695E-1	2.605829E-3	5.304899E-3	7.629854E-3	2.344839E-4	1.554715E-3	6.467066E-3	2.313122E-5
10/19/2017  17:33:02.307023	1.798922E-1	2.753918E-3	2.980005E-3	1.018475E-2	1.595250E-2	7.950997E-3	8.836327E-3	1.310635E-2
10/19/2017  17:33:02.308023	6.846245E-2	4.077791E-5	1.099539E-2	7.622505E-4	2.761600E-3	1.407032E-3	9.331191E-3	1.786408E-3
10/19/2017  17:33:02.309023	5.512953E-2	1.889323E-3	7.495934E-3	1.039477E-2	4.713940E-3	3.380767E-3	4.771759E-3	1.245105E-2
10/19/2017  17:33:02.310023	8.052083E-2	5.471721E-3	5.356739E-3	1.013421E-2	3.401120E-3	2.053257E-4	5.180879E-3	4.192218E-3
10/19/2017  17:33:02.311023	1.006659E-1	4.068010E-3	5.086435E-3	2.848869E-3	1.313364E-4	6.406047E-3	1.296239E-3	8.977628E-4
10/19/2017  17:33:02.312023	1.351572E-1	3.601768E-3	8.072555E-3	2.199527E-2	6.568756E-3	2.094993E-3	1.238756E-2	6.588800E-4
10/19/2017  17:33:02.313023	1.239656E-1	3.228383E-4	3.113749E-3	2.134362E-3	4.055538E-3	8.144905E-3	2.047031E-3	6.945121E-3
10/19/2017  17:33:02.314023	1.207960E-1	2.254000E-3	4.564957E-3	8.010652E-3	2.870660E-3	8.203839E-4	1.450820E-2	2.514725E-3
10/19/2017  17:33:02.315023	3.669500E-2	1.366053E-3	5.403275E-3	8.524741E-3	4.612935E-3	9.407292E-3	9.582094E-3	3.502122E-3
10/19/2017  17:33:02.316023	5.692202E-2	4.955828E-3	9.377395E-3	1.134078E-4	5.465839E-3	2.121759E-3	9.267992E-3	1.109610E-2
10/19/2017  17:33:02.317023	1.723367E-2	5.677968E-3	1.495385E-2	4.161526E-3	5.007390E-3	3.876605E-3	1.079891E-2	1.693439E-3
10/19/2017  17:33:02.318023	1.317419E-2	1.095440E-2	3.684991E-3	1.257100E-2	3.683456E-3	5.814860E-3	9.639720E-3	2.999596E-3
10/19/2017  17:33:02.319023	3.329867E-2	9.937216E-3	1.762181E-2	2.434010E-3	3.927587E-3	1.034541E-2	1.110867E-2	4.549553E-3
10/19/2017  17:33:02.320023	4.673962E-3	1.503709E-2	4.116959E-3	7.174713E-3	2.733168E-3	1.067008E-2	8.326727E-3	7.610672E-3
10/19/2017  17:33:02.321023	1.168004E-2	2.142895E-3	1.660020E-2	3.487596E-3	2.597232E-3	1.457723E-2	6.993812E-3	7.272131E-3
10/19/2017  17:33:02.322023	3.276612E-2	1.371580E-2	1.660166E-3	8.818912E-3	4.170896E-3	9.175503E-3	2.591771E-3	6.326129E-3
10/19/2017  17:33:02.323023	6.298386E-2	1.421630E-3	3.985977E-3	7.623946E-4	2.953389E-3	8.592238E-3	5.040301E-3	9.425345E-3
10/19/2017  17:33:02.324023	5.078073E-2	7.118543E-3	5.520742E-3	7.699731E-3	2.397096E-3	1.168208E-2	8.169903E-3	6.000414E-3
10/19/2017  17:33:02.325023	5.368393E-2	1.087095E-2	2.076624E-3	3.759090E-3	3.387513E-4	1.497637E-2	2.902699E-3	2.633670E-3
10/19/2017  17:33:02.326023	9.516852E-2	1.259397E-2	4.911360E-4	3.534667E-3	8.774433E-3	6.395519E-4	4.285471E-3	1.415175E-4
10/19/2017  17:33:02.327023	6.946929E-2	1.839510E-3	4.164796E-3	2.214497E-3	7.305760E-4	3.284267E-3	3.543649E-3	4.858692E-3
10/19/2017  17:33:02.328023	8.249452E-2	1.806070E-2	3.477627E-3	1.871369E-4	9.752972E-3	9.415006E-3	2.543052E-3	3.747374E-3
10/19/2017  17:33:02.329023	7.284181E-2	3.024741E-3	1.970323E-3	1.868873E-3	2.847171E-3	1.678466E-3	3.847975E-3	1.527291E-3
10/19/2017  17:33:02.330023	6.634284E-2	3.041581E-3	3.637370E-3	1.217187E-2	1.090864E-2	5.251710E-3	2.422045E-3	1.172029E-2
10/19/2017  17:33:02.331023	3.068547E-2	5.147604E-3	6.811729E-3	1.428145E-4	3.507350E-3	3.245028E-3	9.202985E-4	5.262198E-3
10/19/2017  17:33:02.332023	1.324894E-1	2.170714E-3	2.262428E-3	1.127208E-4	3.547884E-3	1.538094E-3	5.494616E-3	3.416468E-5
10/19/2017  17:33:02.333023	1.378459E-1	4.290849E-3	5.501632E-3	1.504056E-2	6.718532E-3	5.921097E-3	4.261086E-3	1.142341E-2
10/19/2017  17:33:02.334023	2.626100E-2	7.811831E-3	2.056853E-3	2.850236E-3	3.014995E-3	2.416223E-3	3.274699E-3	4.623937E-3
10/19/2017  17:33:02.335023	1.950726E-1	1.361425E-3	1.291468E-3	1.133471E-2	4.548457E-3	1.058798E-2	2.257833E-3	1.309129E-3
								
10/19/2017  17:33:02.336023	1.454929E-1	9.581081E-4	3.704113E-3	3.987380E-3	3.273917E-3	8.593291E-4	1.844247E-3	7.417611E-3
10/19/2017  17:33:02.337023	1.417862E-1	4.920277E-3	7.483281E-3	1.794785E-2	8.636322E-3	4.565781E-3	3.633325E-3	8.251523E-3
10/19/2017  17:33:02.338023	5.309871E-1	5.353415E-3	3.067272E-3	7.446906E-3	2.644100E-3	4.808408E-3	4.412279E-4	4.068958E-3
10/19/2017  17:33:02.339023	5.212972E-1	9.749495E-3	6.182166E-3	1.251205E-2	8.478587E-3	2.522095E-3	4.042080E-3	3.027179E-3
10/19/2017  17:33:02.340023	1.060274E-1	1.806953E-2	9.177634E-3	5.972084E-3	3.608338E-3	1.500369E-3	3.704008E-3	2.197958E-3
10/19/2017  17:33:02.341023	1.048815E-1	4.836444E-3	4.733804E-3	4.789481E-3	1.093719E-2	8.753545E-3	1.030724E-2	2.752391E-3
10/19/2017  17:33:02.342023	1.721170E-1	8.191434E-3	2.995416E-3	5.873680E-3	3.640000E-3	7.130584E-4	5.985715E-3	6.164083E-3
10/19/2017  17:33:02.343023	3.308238E-1	1.606432E-3	4.100999E-3	4.239184E-3	6.096392E-3	7.178755E-4	2.053102E-4	3.443337E-4
10/19/2017  17:33:02.344023	4.716276E-1	1.061990E-3	3.718568E-4	1.459827E-3	1.064493E-2	9.153459E-3	3.952803E-3	7.236016E-3
10/19/2017  17:33:02.345023	5.201938E-1	7.902319E-4	2.357881E-3	9.829940E-3	6.097367E-3	1.158223E-2	1.887084E-3	7.598005E-3
10/19/2017  17:33:02.346023	3.102615E-1	5.692493E-4	8.558093E-3	6.207710E-3	1.577552E-2	8.496435E-3	1.034669E-2	1.105332E-3
10/19/2017  17:33:02.347023	9.661333E-2	3.924617E-4	1.831042E-3	1.953466E-3	1.758395E-3	1.536572E-3	3.016339E-3	7.315157E-3
10/19/2017  17:33:02.348023	7.432607E-2	1.904528E-3	9.604844E-4	1.248074E-3	1.327756E-3	7.917870E-3	2.722048E-4	5.842198E-3
10/19/2017  17:33:02.349023	1.055652E-1	7.777042E-3	1.365208E-3	2.824804E-3	1.204341E-3	7.034035E-4	9.138351E-3	4.282651E-3
10/19/2017  17:33:02.350023	1.424506E-1	7.810675E-3	2.946186E-3	5.962090E-3	3.521415E-3	9.004066E-3	4.297546E-3	9.445898E-3
10/19/2017  17:33:02.351023	1.144837E-1	7.916089E-3	1.747245E-3	1.154358E-2	2.689590E-4	2.757894E-3	9.448334E-3	4.561895E-3
10/19/2017  17:33:02.352023	6.658671E-2	7.480041E-3	3.570452E-3	4.213643E-3	2.231713E-3	9.013744E-3	4.579118E-3	1.231409E-2
10/19/2017  17:33:02.353023	1.313727E-1	9.542730E-4	5.129206E-3	5.572322E-3	1.161916E-2	2.361580E-3	3.733418E-3	4.378153E-3
10/19/2017  17:33:02.354023	2.006519E-1	2.669742E-3	2.585355E-3	4.927174E-3	5.830136E-4	3.498479E-4	8.333111E-4	2.742360E-3
10/19/2017  17:33:02.355023	1.981636E-1	7.036580E-3	2.810240E-3	2.852231E-3	1.369766E-2	8.737021E-3	5.578879E-3	7.251424E-3
10/19/2017  17:33:02.356023	1.821137E-1	3.547961E-3	4.198249E-3	3.232124E-4	5.617142E-3	7.816888E-4	3.047607E-3	5.264154E-3
10/19/2017  17:33:02.357023	1.216960E-1	6.677492E-3	3.944805E-3	9.084784E-3	1.974483E-3	7.664475E-3	4.851149E-3	7.598436E-3
10/19/2017  17:33:02.358023	1.931732E-1	4.273014E-3	3.187976E-3	8.797435E-3	5.063296E-3	1.015892E-2	3.801630E-3	1.443357E-3
10/19/2017  17:33:02.359023	5.576480E-2	1.066468E-2	4.682438E-3	1.838606E-3	7.724520E-3	3.609702E-3	7.278881E-4	7.346642E-3
10/19/2017  17:33:02.360023	2.361338E-2	5.868242E-3	5.245190E-3	1.617518E-2	3.734156E-3	1.750440E-3	4.958325E-3	3.968639E-3
10/19/2017  17:33:02.361023	5.990489E-2	4.316783E-3	7.821735E-3	1.102010E-2	9.697331E-3	3.104485E-3	5.178610E-3	3.345886E-3
10/19/2017  17:33:02.362023	4.401986E-2	6.497926E-4	6.391241E-4	3.231752E-2	4.911322E-3	6.497401E-3	1.460206E-3	1.540544E-3
10/19/2017  17:33:02.363023	4.519683E-3	1.181745E-4	3.027411E-4	2.932996E-3	5.262278E-3	2.314516E-3	8.693493E-4	2.799884E-3
10/19/2017  17:33:02.364023	2.688905E-2	2.923817E-4	1.398805E-2	1.186714E-3	1.538947E-3	2.986544E-3	1.686622E-2	7.254117E-3
10/19/2017  17:33:02.365023	1.413762E-2	1.561353E-3	5.955571E-3	8.539768E-3	3.378110E-3	6.690635E-3	1.373044E-3	5.556081E-3
10/19/2017  17:33:02.366023	8.388391E-2	1.015200E-2	2.270343E-3	1.138637E-2	2.433661E-3	9.054496E-3	1.234625E-2	1.922683E-3
10/19/2017  17:33:02.367023	6.617996E-2	8.583411E-4	3.788725E-3	6.463248E-3	5.371832E-4	1.127534E-2	4.611376E-3	1.362168E-3
10/19/2017  17:33:02.368023	2.316856E-4	8.048220E-3	1.763061E-3	2.641386E-3	5.086280E-4	5.993658E-3	9.877207E-4	8.722550E-4
								
10/19/2017  17:33:02.369023	1.061284E-1	3.173140E-3	5.122934E-3	4.821870E-3	9.138806E-3	1.320448E-2	8.152836E-3	1.709645E-3
10/19/2017  17:33:02.370023	1.458094E-1	2.479207E-3	9.593609E-3	4.063304E-3	4.113407E-3	6.987996E-3	3.568995E-3	7.271526E-3
10/19/2017  17:33:02.371023	1.910997E-1	8.334923E-3	4.015092E-3	9.845943E-3	1.054188E-2	6.458671E-3	6.396208E-3	1.751280E-3
10/19/2017  17:33:02.372023	6.925445E-2	1.592251E-2	2.851351E-3	1.559767E-3	1.413509E-2	1.372823E-2	2.512229E-3	1.038534E-2
10/19/2017  17:33:02.373023	6.020196E-2	2.453194E-3	1.889869E-3	1.187439E-2	9.927725E-3	8.273816E-3	3.946431E-4	3.209596E-3
10/19/2017  17:33:02.374023	6.212457E-2	1.817246E-2	1.400863E-2	1.010036E-2	9.535605E-3	1.831495E-3	4.626802E-3	2.096486E-3
10/19/2017  17:33:02.375023	3.732027E-1	1.995391E-4	1.030975E-3	1.546549E-2	4.158299E-3	5.048615E-3	1.180549E-3	7.973498E-3
10/19/2017  17:33:02.376023	8.981978E-1	1.243220E-2	4.100484E-3	7.292504E-3	3.012007E-3	1.029727E-3	1.011523E-3	3.298997E-3
10/19/2017  17:33:02.377023	1.125422E+0	7.186269E-3	5.503483E-3	1.077644E-3	6.363686E-3	1.057117E-3	8.588789E-4	5.104890E-4
10/19/2017  17:33:02.378023	6.875587E-1	1.028611E-2	2.339645E-3	5.621942E-3	6.287108E-3	5.356554E-3	5.036609E-3	6.712991E-4
10/19/2017  17:33:02.379023	2.435428E-1	8.416062E-4	1.216529E-2	9.247107E-3	1.142915E-2	3.885426E-3	5.133647E-3	7.882869E-4
10/19/2017  17:33:02.380023	7.098054E-1	4.452420E-3	2.981762E-3	6.549585E-3	6.405083E-3	6.011128E-3	1.432653E-3	3.024819E-3
10/19/2017  17:33:02.381023	7.989329E-1	8.319730E-3	1.599926E-2	1.086780E-2	1.815839E-3	6.935260E-5	5.626340E-3	2.017165E-4
10/19/2017  17:33:02.382023	4.886537E-1	2.240943E-3	3.386637E-3	3.513735E-3	3.316341E-3	6.592022E-3	3.981716E-3	1.823876E-3
10/19/2017  17:33:02.383023	2.970951E-1	1.188328E-2	8.524257E-3	2.356480E-4	6.592457E-3	8.800532E-3	6.032472E-3	5.455563E-3
10/19/2017  17:33:02.384023	5.791682E-2	6.533592E-3	1.178150E-3	3.515932E-5	4.780934E-3	5.185648E-3	4.347758E-3	1.045809E-2
10/19/2017  17:33:02.385023	5.869644E-2	2.099582E-3	1.701125E-3	1.286032E-2	1.080178E-3	1.293166E-2	2.925870E-3	1.018702E-2
10/19/2017  17:33:02.386023	3.578253E-1	6.077384E-3	9.306010E-5	6.596988E-3	1.661432E-3	2.841221E-3	2.573503E-3	3.022759E-3
10/19/2017  17:33:02.387023	5.537100E-1	4.344338E-3	5.163872E-3	9.533731E-3	2.903719E-3	4.550939E-3	2.187835E-3	6.593520E-3
10/19/2017  17:33:02.388023	4.412976E-3	2.872045E-3	2.289035E-3	4.070671E-4	8.187923E-3	3.293804E-3	5.301276E-3	4.574562E-3
10/19/2017  17:33:02.389023	3.305000E-1	4.838237E-3	1.554674E-4	2.433141E-3	1.424650E-3	1.654847E-4	3.160929E-4	7.912222E-3
10/19/2017  17:33:02.390023	3.467230E-1	3.733103E-3	5.670250E-3	3.746689E-3	8.356949E-3	2.092259E-3	2.139235E-3	7.929600E-3
10/19/2017  17:33:02.391023	2.887021E-1	1.526199E-3	1.204109E-2	1.509077E-4	8.695722E-3	7.017519E-4	3.816807E-3	3.223625E-3
10/19/2017  17:33:02.392023	2.798872E-1	3.062976E-3	1.131779E-2	6.825327E-3	2.254505E-3	2.690573E-3	5.943912E-3	8.966826E-3
10/19/2017  17:33:02.393023	1.826659E-1	8.954257E-3	5.363774E-4	7.817331E-4	7.929048E-4	3.159636E-4	1.910821E-3	2.425850E-3
10/19/2017  17:33:02.394023	2.278887E-1	2.106735E-3	1.709604E-3	5.731957E-3	9.453670E-3	8.323497E-3	5.412041E-3	1.053776E-2
10/19/2017  17:33:02.395023	1.978306E-1	1.002782E-2	7.518876E-3	5.008636E-3	4.426366E-3	3.128703E-3	6.129208E-3	3.538921E-3
10/19/2017  17:33:02.396023	1.095174E-1	2.027661E-3	1.673834E-3	3.919677E-3	1.602247E-3	8.162533E-3	1.256300E-4	7.057667E-3
10/19/2017  17:33:02.397023	5.790561E-2	1.498004E-2	1.826088E-3	9.973969E-3	4.897807E-3	5.716227E-3	3.391955E-4	1.525815E-3
10/19/2017  17:33:02.398023	3.239605E-2	1.119441E-4	1.938611E-3	3.119111E-5	1.018114E-2	9.024976E-3	5.096438E-4	7.648068E-3
10/19/2017  17:33:02.399023	3.645605E-1	6.674548E-3	1.461977E-4	1.442273E-3	5.476556E-3	6.699990E-3	1.516598E-3	1.253394E-3
10/19/2017  17:33:02.400023	3.912390E-1	4.010683E-3	3.717115E-3	4.164655E-3	4.633080E-3	4.708356E-3	7.121624E-4	1.150488E-3
10/19/2017  17:33:02.401023	1.780259E-1	7.202239E-3	1.702654E-3	1.602412E-3	1.384366E-2	5.180118E-3	2.215267E-3	7.516161E-3
								
10/19/2017  17:33:02.402023	9.444804E-3	4.826929E-3	1.073547E-2	6.227090E-3	1.267549E-2	5.220806E-3	7.643528E-3	3.118237E-3
10/19/2017  17:33:02.403023	1.262907E-2	7.950687E-3	6.336054E-3	6.767216E-4	2.043301E-2	8.028296E-3	5.800828E-3	8.850865E-3
10/19/2017  17:33:02.404023	8.044754E-2	3.883630E-3	3.538926E-3	7.482807E-3	7.380193E-3	1.296617E-2	2.252425E-3	1.920657E-4
10/19/2017  17:33:02.405023	8.532489E-2	3.514230E-3	3.697589E-4	7.732962E-3	5.465047E-3	7.776291E-3	3.626753E-3	1.936065E-3
10/19/2017  17:33:02.406023	1.167504E-1	2.178111E-3	5.392780E-3	3.263298E-3	6.972960E-3	3.581745E-3	2.041010E-3	1.212291E-3
10/19/2017  17:33:02.407023	4.680149E-2	1.403177E-2	1.787804E-4	6.742295E-3	2.611891E-3	5.160600E-3	1.734318E-3	5.855717E-3
10/19/2017  17:33:02.408023	9.326889E-2	8.294327E-4	7.806591E-4	1.049121E-2	5.011104E-3	1.767038E-3	2.867241E-3	1.109917E-4
10/19/2017  17:33:02.409023	2.190496E-1	1.150548E-2	3.381048E-3	5.112367E-3	5.160841E-4	2.906997E-3	2.598943E-3	8.542596E-3
10/19/2017  17:33:02.410023	7.786478E-2	2.932358E-3	7.292211E-3	1.390629E-2	2.283466E-3	8.982234E-3	4.275033E-3	2.913696E-3
10/19/2017  17:33:02.411023	1.160144E-1	1.322277E-2	7.624596E-3	1.506987E-2	9.081667E-4	2.300356E-3	1.184688E-3	6.750791E-3
10/19/2017  17:33:02.412023	2.742043E-1	5.881098E-3	1.147777E-3	7.265708E-3	5.364363E-3	3.860210E-3	3.564971E-3	5.885628E-3
10/19/2017  17:33:02.413023	2.627402E-1	1.075195E-2	9.825601E-3	7.821626E-4	1.051380E-2	4.949327E-4	3.977975E-3	3.900889E-3
10/19/2017  17:33:02.414023	1.306328E-1	1.358827E-3	6.504585E-5	2.167147E-3	5.744740E-3	4.521991E-3	6.057893E-4	4.224680E-3
10/19/2017  17:33:02.415023	5.269632E-2	5.734958E-3	5.111874E-3	9.957702E-3	1.288073E-2	3.593164E-3	8.321381E-3	8.685083E-4
10/19/2017  17:33:02.416023	4.704245E-2	2.168911E-3	2.114014E-3	7.475289E-3	6.391434E-3	2.811246E-3	7.560089E-4	1.065149E-2
10/19/2017  17:33:02.417023	1.796379E-1	1.665324E-3	8.567226E-3	1.033759E-3	1.351565E-2	2.121509E-3	7.293415E-3	9.533615E-4
10/19/2017  17:33:02.418023	2.087830E-1	3.094415E-3	8.789602E-5	1.501047E-3	1.457645E-3	4.957226E-3	1.259680E-3	1.523641E-3
10/19/2017  17:33:02.419023	1.875654E-2	2.253361E-3	6.281640E-3	5.373570E-3	7.880264E-3	1.198786E-2	7.350795E-3	5.388875E-3
10/19/2017  17:33:02.420023	6.435123E-2	8.158421E-3	4.713811E-3	1.221645E-2	3.505892E-3	1.159585E-2	3.733296E-3	3.584364E-3
10/19/2017  17:33:02.421023	6.891947E-2	7.694503E-3	8.148991E-3	7.599673E-4	6.301740E-3	1.512664E-2	2.949132E-3	1.087449E-2
10/19/2017  17:33:02.422023	7.270248E-2	1.032079E-2	3.797533E-3	1.663703E-2	4.234809E-3	4.634207E-3	6.589121E-3	1.388520E-3
10/19/2017  17:33:02.423023	1.316794E-1	9.924013E-3	8.145267E-3	1.436299E-3	5.138944E-3	7.903211E-3	6.191832E-3	1.183191E-3
10/19/2017  17:33:02.424023	1.928721E-1	8.069327E-3	3.399675E-3	9.556460E-3	9.608160E-3	5.193229E-3	8.632425E-3	8.177972E-4
10/19/2017  17:33:02.425023	1.379436E-1	5.532107E-3	6.689910E-3	1.875219E-3	4.646284E-3	1.004814E-2	7.304695E-3	4.825295E-3
10/19/2017  17:33:02.426023	4.227627E-2	9.541618E-3	7.200195E-3	1.643181E-3	7.327292E-3	6.398149E-3	5.538656E-3	5.483976E-3
10/19/2017  17:33:02.427023	7.662668E-2	7.040545E-3	1.398991E-3	1.496711E-2	6.276601E-3	9.374515E-3	1.869674E-3	6.200170E-3
10/19/2017  17:33:02.428023	5.180451E-2	1.558813E-3	3.217499E-3	4.461628E-3	2.016651E-2	1.832545E-3	7.332328E-3	1.084036E-2
10/19/2017  17:33:02.429023	2.840672E-2	9.425199E-4	8.576648E-3	1.396269E-2	5.376922E-3	3.324860E-3	2.822388E-3	5.336176E-3
10/19/2017  17:33:02.430023	8.146532E-3	5.291053E-4	4.936134E-3	5.815017E-3	2.467980E-4	9.884847E-5	5.870245E-4	7.560693E-3
10/19/2017  17:33:02.431023	1.649581E-2	4.126185E-3	7.982343E-3	1.986261E-2	2.230294E-3	4.754370E-3	5.211500E-3	1.500242E-2
10/19/2017  17:33:02.432023	4.954709E-2	5.652801E-3	1.166320E-3	7.636341E-3	4.722729E-3	1.439383E-3	2.458798E-3	1.335027E-2
10/19/2017  17:33:02.433023	1.042519E-1	4.847292E-3	4.819037E-3	3.155262E-3	2.993675E-3	3.157452E-3	2.942535E-3	5.720406E-3
10/19/2017  17:33:02.434023	1.867884E-1	3.566260E-3	2.868846E-3	2.144829E-3	7.088608E-3	1.986296E-3	2.450190E-4	4.096104E-3
								
10/19/2017  17:33:02.435023	2.374518E-1	6.155518E-3	1.168252E-2	1.812783E-2	5.405797E-3	1.137139E-3	1.341015E-2	8.056165E-3
10/19/2017  17:33:02.436023	1.432162E-1	2.240556E-3	4.386285E-3	5.937951E-3	4.696139E-3	5.525575E-3	3.634469E-3	7.794361E-3
10/19/2017  17:33:02.437023	6.279608E-3	4.755652E-3	3.221315E-3	3.196732E-3	3.087931E-3	4.133722E-3	1.577701E-2	1.428941E-3
10/19/2017  17:33:02.438023	4.932261E-2	9.215087E-4	9.109248E-5	1.188292E-2	6.894558E-3	5.693948E-3	6.414958E-3	1.238002E-2
10/19/2017  17:33:02.439023	1.124617E-1	8.388785E-3	2.481360E-3	2.536636E-3	2.967763E-3	3.872374E-3	1.348997E-2	1.857542E-3
10/19/2017  17:33:02.440023	2.805578E-1	1.773010E-3	1.932610E-3	2.111026E-3	4.323064E-3	4.519380E-3	1.474952E-3	3.378840E-3
10/19/2017  17:33:02.441023	2.268939E-1	5.234685E-3	5.761556E-3	5.478139E-3	5.773920E-3	6.056781E-3	3.599334E-3	1.965961E-5
10/19/2017  17:33:02.442023	1.638206E-1	2.913397E-3	6.887835E-3	4.240799E-3	1.958611E-3	9.115400E-3	6.884595E-4	4.654045E-3
10/19/2017  17:33:02.443023	1.434832E-1	1.728657E-2	5.847664E-4	3.165252E-3	3.060689E-3	2.045430E-3	1.406109E-3	3.480766E-3
10/19/2017  17:33:02.444023	7.003989E-2	3.415160E-3	8.290650E-3	7.851563E-5	8.593576E-3	9.430844E-3	2.813572E-3	3.995639E-3
10/19/2017  17:33:02.445023	1.250455E-1	2.686652E-2	3.475462E-3	2.393675E-6	1.412618E-3	6.439940E-3	2.822274E-3	4.873024E-3
10/19/2017  17:33:02.446023	1.010282E-1	4.962631E-3	8.843200E-3	4.397528E-3	6.041150E-3	4.707924E-3	6.799248E-3	7.694477E-3
10/19/2017  17:33:02.447023	1.183399E-1	1.690015E-2	2.233680E-3	1.272718E-3	6.850597E-3	1.043107E-2	3.565779E-3	3.457186E-3
10/19/2017  17:33:02.448023	2.115838E-1	9.717007E-4	4.764542E-3	5.294466E-3	8.005208E-3	7.638555E-3	2.210084E-3	1.915769E-3
10/19/2017  17:33:02.449023	1.042697E-1	8.426297E-3	3.076338E-3	1.449010E-3	3.162993E-3	1.195004E-3	5.377492E-3	1.388221E-3
10/19/2017  17:33:02.450023	1.669783E-1	2.736908E-4	4.806805E-3	1.419621E-3	5.189447E-4	1.123226E-3	1.994161E-3	1.211282E-3
10/19/2017  17:33:02.451023	2.698021E-1	4.353173E-3	8.147790E-3	3.025091E-3	2.051321E-2	4.887426E-3	1.640467E-3	1.292234E-3
10/19/2017  17:33:02.452023	3.896934E-2	1.567066E-3	6.001287E-4	8.204834E-3	2.801552E-3	1.286887E-3	1.318556E-3	8.792755E-4
10/19/2017  17:33:02.453023	1.235238E-1	1.471253E-3	6.868084E-3	1.011304E-2	4.338542E-3	3.549253E-3	3.287665E-3	1.618936E-3
10/19/2017  17:33:02.454023	2.789488E-1	7.835087E-3	2.485172E-4	9.942864E-3	3.093837E-3	9.357587E-3	2.132293E-3	7.448813E-3
10/19/2017  17:33:02.455023	4.049921E-1	3.046956E-3	8.882955E-3	7.487495E-4	6.602889E-3	2.314234E-3	5.287497E-3	4.987534E-3
10/19/2017  17:33:02.456023	5.597848E-1	2.113477E-3	5.064661E-5	1.670295E-2	1.868259E-3	1.425039E-3	3.924089E-3	1.000610E-2
10/19/2017  17:33:02.457023	9.180103E-2	8.191557E-4	6.482057E-3	1.780367E-3	3.568742E-3	3.636987E-3	3.720627E-3	9.470883E-4
10/19/2017  17:33:02.458023	1.468597E-1	7.424261E-4	4.859552E-6	1.507839E-2	3.055677E-4	7.150618E-3	4.749736E-3	3.450680E-3
10/19/2017  17:33:02.459023	2.850831E-1	1.500710E-3	1.116367E-2	6.716780E-3	6.389500E-3	5.743984E-3	7.679603E-3	4.348734E-3
10/19/2017  17:33:02.460023	2.813725E-1	7.357223E-3	1.417316E-3	3.941075E-3	2.252616E-3	6.833158E-3	1.171712E-3	5.460063E-3
10/19/2017  17:33:02.461023	2.845671E-1	6.057764E-3	1.648852E-2	1.511139E-3	9.512536E-3	4.735061E-4	3.587718E-3	4.748236E-4
10/19/2017  17:33:02.462023	3.000710E-1	8.992120E-3	5.936533E-3	7.514346E-3	2.415009E-3	1.060904E-2	3.929469E-4	4.746523E-3
10/19/2017  17:33:02.463023	2.642455E-1	2.055261E-3	8.396013E-3	3.663932E-3	9.307948E-3	7.292166E-3	6.231785E-3	1.019586E-3
10/19/2017  17:33:02.464023	2.845947E-1	5.572115E-3	5.462542E-3	2.947324E-3	8.119952E-6	4.121332E-3	2.062194E-3	7.279574E-3
10/19/2017  17:33:02.465023	2.719890E-1	1.325556E-3	4.435037E-3	1.682134E-4	1.103911E-2	1.221527E-2	1.076536E-3	3.679070E-3
10/19/2017  17:33:02.466023	2.219347E-1	1.049147E-2	2.963616E-3	8.293698E-3	1.177655E-3	4.071370E-3	7.648560E-3	6.383414E-4
10/19/2017  17:33:02.467023	5.319623E-2	5.177342E-3	6.983456E-3	1.162896E-3	4.883494E-4	1.127713E-2	8.877415E-4	2.759951E-3
								
10/19/2017  17:33:02.468023	8.191808E-2	7.560753E-3	9.516553E-3	1.230268E-2	1.304328E-2	3.530000E-3	6.977134E-3	2.298223E-3
10/19/2017  17:33:02.469023	3.442489E-1	5.626497E-3	6.558577E-3	6.126580E-3	3.772368E-3	5.463334E-3	1.938575E-3	1.500927E-3
10/19/2017  17:33:02.470023	4.093219E-1	6.810084E-3	1.904744E-3	6.834049E-3	1.572125E-2	6.656363E-3	1.047209E-2	2.990841E-3
10/19/2017  17:33:02.471023	2.696562E-1	4.649725E-3	8.097981E-3	1.405836E-3	1.938972E-3	3.556499E-3	1.051793E-3	4.744636E-3
10/19/2017  17:33:02.472023	1.083722E-1	2.845909E-3	1.129182E-4	7.798423E-4	1.679425E-2	2.091538E-3	7.940941E-3	5.813317E-3
10/19/2017  17:33:02.473023	1.041947E-1	9.428681E-3	5.221484E-4	4.045114E-3	5.747382E-3	9.884604E-3	3.252380E-3	8.781261E-3
10/19/2017  17:33:02.474023	6.912444E-4	7.081098E-3	9.657865E-3	7.344231E-3	8.972196E-3	5.117475E-3	4.622897E-3	1.598019E-3
10/19/2017  17:33:02.475023	1.799860E-1	3.562796E-3	7.197268E-3	1.432879E-3	6.181429E-3	7.201365E-3	3.640997E-3	1.016531E-2
10/19/2017  17:33:02.476023	2.424753E-1	2.732726E-4	1.001362E-2	1.234156E-3	4.793594E-3	6.444229E-4	3.689674E-3	9.558925E-3
10/19/2017  17:33:02.477023	2.537275E-1	8.587282E-3	3.345368E-4	7.539206E-3	1.034289E-2	4.107063E-3	4.465890E-3	6.443829E-3
10/19/2017  17:33:02.478023	6.681586E-2	1.607106E-3	2.081018E-4	3.382855E-3	3.043958E-3	5.173669E-3	3.846115E-3	1.985337E-2
10/19/2017  17:33:02.479023	1.677365E-3	7.864718E-4	4.947769E-3	1.757376E-2	6.709403E-3	2.958958E-3	7.533791E-3	1.244662E-2
10/19/2017  17:33:02.480023	9.745767E-3	4.203312E-3	8.161919E-3	7.623604E-3	3.860221E-3	4.396664E-3	1.225785E-3	7.117707E-3
10/19/2017  17:33:02.481023	1.632568E-1	1.168171E-3	1.463263E-3	1.468199E-2	4.780924E-3	7.699885E-3	5.535546E-3	1.355259E-3
10/19/2017  17:33:02.482023	2.499833E-1	3.277040E-3	5.607824E-3	4.650070E-3	5.182961E-3	9.149389E-4	1.515937E-3	5.240365E-3
10/19/2017  17:33:02.483023	3.578786E-2	1.808174E-3	3.427190E-4	5.392708E-3	5.649340E-3	4.063102E-3	5.007194E-3	3.471566E-3
10/19/2017  17:33:02.484023	1.722649E-1	3.207712E-3	1.540519E-2	2.983819E-3	4.601945E-3	1.126746E-3	1.000328E-2	4.464462E-3
10/19/2017  17:33:02.485023	2.214918E-1	1.107292E-2	1.746915E-3	8.906568E-3	5.848102E-3	1.034103E-2	9.585139E-3	3.523891E-3
10/19/2017  17:33:02.486023	6.426446E-3	3.593941E-3	1.904435E-2	2.355737E-3	1.230950E-5	5.597763E-3	2.350335E-3	5.357991E-4
10/19/2017  17:33:02.487023	3.786822E-1	8.447232E-3	5.109187E-3	6.046285E-3	6.339078E-3	2.625546E-3	3.015451E-3	5.185676E-4
10/19/2017  17:33:02.488023	1.381864E-1	5.323886E-4	1.380250E-2	1.937996E-3	6.264688E-3	1.098010E-2	3.179038E-4	3.837326E-3
10/19/2017  17:33:02.489023	1.566945E-1	1.028398E-2	3.015963E-3	1.133922E-3	1.360672E-2	8.029888E-4	5.907809E-3	1.840979E-3
10/19/2017  17:33:02.490023	3.601629E-1	8.335151E-3	1.539639E-3	7.641758E-3	7.859194E-3	1.310560E-2	1.426988E-3	5.852747E-3
10/19/2017  17:33:02.491023	6.861306E-3	1.707864E-2	3.976770E-3	3.344764E-3	9.624060E-3	5.293399E-3	4.102672E-3	8.463121E-3
10/19/2017  17:33:02.492023	2.601980E-1	3.328658E-3	7.826637E-3	8.239243E-5	4.459979E-3	5.689455E-4	7.973649E-3	5.594633E-3
10/19/2017  17:33:02.493023	1.058697E+0	5.825878E-3	1.637703E-3	4.454240E-3	5.984465E-3	6.927845E-3	6.133805E-3	1.191283E-2
10/19/2017  17:33:02.494023	1.338522E+0	5.175608E-3	3.602662E-3	1.050887E-3	2.439632E-3	3.849931E-4	2.374973E-4	2.451011E-3
10/19/2017  17:33:02.495023	1.008562E+0	6.444474E-3	5.382469E-4	7.197112E-3	2.138970E-4	5.251853E-5	1.849245E-3	1.196880E-4
10/19/2017  17:33:02.496023	2.428337E-1	4.941828E-3	3.856187E-3	2.636593E-3	5.448612E-5	4.710226E-3	3.221268E-3	2.385025E-3
10/19/2017  17:33:02.497023	9.120629E-1	1.488830E-3	1.043640E-2	2.964801E-3	4.577622E-3	7.687751E-4	4.578300E-3	8.424847E-3
10/19/2017  17:33:02.498023	1.151273E+0	5.409742E-3	5.117355E-3	4.186458E-4	1.127434E-3	2.509750E-3	3.290677E-3	5.916748E-3
10/19/2017  17:33:02.499023	9.818793E-1	3.651375E-3	9.793161E-3	7.583204E-4	1.427445E-3	5.003111E-3	8.447209E-3	1.129614E-2
10/19/2017  17:33:02.500023	9.165008E-1	6.453072E-3	9.320649E-3	9.638854E-3	3.269473E-3	1.559466E-3	9.403053E-3	5.917339E-3
								
10/19/2017  17:33:02.501023	6.381479E-1	4.830486E-3	2.245639E-3	4.796639E-3	2.147931E-3	3.322448E-3	2.667459E-4	9.041104E-3
10/19/2017  17:33:02.502023	2.503387E-1	1.291286E-3	1.264504E-2	7.545973E-3	7.451882E-3	1.069950E-4	2.007407E-3	1.533181E-5
10/19/2017  17:33:02.503023	4.249338E-1	7.795351E-3	2.257935E-3	5.996490E-3	5.396119E-3	6.553815E-3	3.547942E-3	1.072934E-2
10/19/2017  17:33:02.504023	3.433361E-1	1.018405E-3	5.374957E-3	4.103031E-4	4.983648E-3	1.105911E-2	1.996218E-3	2.834265E-3
10/19/2017  17:33:02.505023	2.235788E-1	3.937816E-3	1.276583E-4	1.420686E-3	7.898585E-3	7.818279E-3	5.917951E-3	5.198742E-3
10/19/2017  17:33:02.506023	1.535769E-1	5.192136E-3	6.751776E-3	4.779796E-3	3.377961E-3	8.134416E-3	4.159755E-3	1.080136E-2
10/19/2017  17:33:02.507023	2.431657E-2	5.862676E-3	6.205245E-4	3.892511E-3	9.220122E-3	1.514359E-3	5.944320E-3	3.571326E-3
10/19/2017  17:33:02.508023	3.680932E-2	4.178539E-4	5.973271E-3	1.435289E-2	4.364613E-3	1.183321E-3	2.144138E-3	3.962736E-3
10/19/2017  17:33:02.509023	5.296116E-2	7.110702E-3	8.265920E-3	1.820719E-3	5.835730E-3	7.411050E-3	7.672048E-4	7.052428E-3
10/19/2017  17:33:02.510023	5.564233E-2	2.985697E-3	9.952421E-3	5.122545E-3	4.267896E-3	1.391937E-3	1.010897E-2	1.857563E-3
10/19/2017  17:33:02.511023	8.535344E-2	4.190511E-3	7.570776E-3	1.236042E-3	5.722265E-3	7.436065E-3	6.288892E-3	8.217317E-3
10/19/2017  17:33:02.512023	1.354162E-1	1.458175E-2	8.284294E-3	3.802372E-3	4.648590E-3	3.839984E-3	5.842901E-4	3.793770E-3
10/19/2017  17:33:02.513023	2.214609E-1	2.791636E-3	2.090484E-3	3.527285E-3	3.250121E-3	1.181217E-2	7.918281E-4	3.899731E-3
10/19/2017  17:33:02.514023	2.492291E-1	4.406283E-3	1.881567E-3	4.336854E-3	4.469871E-3	2.625330E-4	1.228937E-3	2.802617E-3
10/19/2017  17:33:02.515023	2.373599E-1	1.062111E-3	8.142019E-3	9.849090E-4	7.845983E-3	2.497805E-3	1.713420E-3	6.745110E-3
10/19/2017  17:33:02.516023	5.266858E-1	1.650214E-2	3.633109E-3	6.038954E-3	5.534267E-3	6.774578E-3	1.620603E-3	2.502765E-3
10/19/2017  17:33:02.517023	4.465142E-1	4.022355E-3	2.348492E-3	1.078549E-2	7.413226E-4	4.467942E-3	1.497788E-3	3.615069E-3
10/19/2017  17:33:02.518023	2.378570E-1	1.436215E-2	5.209738E-3	1.366763E-3	9.594568E-3	3.937470E-3	9.982714E-3	2.276689E-3
10/19/2017  17:33:02.519023	2.165506E-1	3.906125E-3	4.661811E-3	1.008131E-2	1.760237E-3	5.559255E-3	2.673017E-3	8.628736E-3
10/19/2017  17:33:02.520023	3.235833E-1	2.661031E-3	2.871782E-3	5.095142E-3	1.417717E-2	2.204660E-3	1.559196E-3	4.206103E-3
10/19/2017  17:33:02.521023	1.048537E-1	7.020349E-3	5.091220E-3	9.560080E-3	1.373804E-3	4.593839E-3	5.843031E-3	5.639430E-3
10/19/2017  17:33:02.522023	3.368705E-2	2.896850E-3	1.065209E-2	2.413419E-3	1.257640E-2	6.016649E-4	1.992598E-3	4.924621E-4
10/19/2017  17:33:02.523023	8.990889E-3	4.521663E-3	3.397908E-3	1.364563E-2	7.124167E-3	6.671833E-3	1.026210E-3	2.747765E-3
10/19/2017  17:33:02.524023	2.148747E-1	1.140868E-3	2.337442E-3	7.956411E-4	1.456471E-3	7.327975E-3	1.926205E-3	8.577462E-3
10/19/2017  17:33:02.525023	1.840658E-1	8.598061E-4	9.345400E-3	1.089227E-2	1.090832E-3	3.315607E-3	8.330776E-3	7.055478E-3
10/19/2017  17:33:02.526023	1.766956E-2	3.691067E-3	2.109675E-3	6.187238E-3	3.539531E-3	2.920969E-5	1.802486E-3	7.901461E-3
10/19/2017  17:33:02.527023	3.946977E-1	1.850320E-3	1.638198E-3	5.461122E-3	2.366755E-3	4.507727E-3	3.502496E-3	1.021654E-3
10/19/2017  17:33:02.528023	2.248389E-1	7.010152E-4	1.232695E-3	3.789464E-3	5.108018E-3	7.567907E-3	4.563462E-3	6.174837E-3
10/19/2017  17:33:02.529023	7.167088E-2	6.145818E-3	5.591528E-3	2.766907E-2	3.790632E-3	2.921058E-3	5.096995E-3	8.942314E-3
10/19/2017  17:33:02.530023	2.109671E-1	6.468033E-3	1.136059E-2	6.914181E-3	3.814432E-3	7.086327E-3	9.899924E-3	6.203049E-3
10/19/2017  17:33:02.531023	2.390173E-1	4.180921E-3	5.766758E-3	8.375029E-3	4.512361E-4	1.060224E-3	1.380427E-2	2.567634E-3
10/19/2017  17:33:02.532023	1.847822E-1	8.760654E-4	1.436145E-3	8.225603E-3	4.173209E-3	5.455227E-3	3.453693E-3	1.097072E-2
10/19/2017  17:33:02.533023	3.002294E-1	5.858283E-3	1.044265E-2	3.066909E-3	2.995198E-3	3.097350E-3	1.144480E-2	7.312367E-4
								
10/19/2017  17:33:02.534023	3.761606E-1	6.842790E-3	7.360282E-3	6.753393E-3	1.579778E-4	1.347822E-2	4.894934E-3	4.807636E-3
10/19/2017  17:33:02.535023	6.744872E-2	9.208442E-3	4.687776E-3	4.527485E-4	8.921983E-3	7.395406E-3	5.651095E-3	3.194999E-3
10/19/2017  17:33:02.536023	2.572837E-1	6.802937E-3	8.312131E-3	1.964826E-3	3.329428E-4	1.246561E-2	3.760717E-3	6.774377E-3
10/19/2017  17:33:02.537023	2.443200E-1	5.098233E-3	8.708572E-3	6.860962E-4	4.846322E-3	4.629199E-3	4.285267E-3	5.027413E-3
10/19/2017  17:33:02.538023	1.539357E-1	1.011792E-2	8.615485E-3	6.095101E-3	3.565130E-3	7.394530E-3	7.763397E-3	3.533728E-3
10/19/2017  17:33:02.539023	7.150006E-2	6.186681E-3	8.135631E-3	6.383412E-3	6.174065E-3	3.947821E-3	1.294964E-3	2.045885E-3
10/19/2017  17:33:02.540023	1.404141E-1	1.746552E-3	3.437505E-3	1.532441E-2	8.654099E-5	1.175925E-2	8.883118E-4	3.840303E-3
10/19/2017  17:33:02.541023	1.938379E-1	7.347388E-3	9.521816E-3	1.080866E-2	8.370679E-3	9.923049E-3	8.086832E-3	2.815668E-3
10/19/2017  17:33:02.542023	9.498084E-2	4.118625E-3	2.711362E-3	8.117483E-3	1.052582E-3	1.412819E-3	5.542248E-3	1.315611E-2
10/19/2017  17:33:02.543023	2.484088E-1	1.453644E-3	4.456749E-3	1.063633E-2	4.328003E-3	1.754337E-3	9.524572E-3	4.037659E-3
10/19/2017  17:33:02.544023	5.317301E-1	3.836672E-3	7.229269E-3	5.291717E-3	1.022565E-2	1.276468E-2	4.858103E-3	1.196340E-2
10/19/2017  17:33:02.545023	8.614908E-1	7.576030E-3	6.274709E-3	2.942987E-3	1.403070E-2	9.333951E-3	7.359113E-3	1.314448E-4
10/19/2017  17:33:02.546023	9.559810E-2	1.303805E-3	6.470955E-4	4.439248E-3	9.862216E-3	6.407355E-3	1.444954E-3	1.949858E-3
10/19/2017  17:33:02.547023	9.432107E-2	5.432554E-3	7.406131E-3	5.320323E-3	2.847066E-3	6.852114E-3	1.168780E-2	1.185763E-3
10/19/2017  17:33:02.548023	1.661917E-1	1.393176E-3	3.158967E-3	5.104412E-3	4.487948E-3	7.517595E-3	5.322806E-3	5.916425E-3
10/19/2017  17:33:02.549023	1.833454E-3	8.075044E-3	4.514059E-3	5.705265E-4	8.941108E-4	9.428561E-4	4.431972E-3	1.508729E-2
10/19/2017  17:33:02.550023	7.096618E-1	1.576623E-3	3.366443E-3	1.326438E-2	6.892949E-3	6.963353E-3	5.777744E-3	4.938937E-3
10/19/2017  17:33:02.551023	2.842838E-1	3.285425E-3	2.229421E-4	6.325491E-3	4.296171E-3	6.614502E-3	2.177040E-3	2.396460E-3
10/19/2017  17:33:02.552023	4.103405E-1	2.000202E-5	6.575909E-3	1.004880E-2	5.717804E-3	4.812210E-3	6.994982E-3	1.122347E-3
10/19/2017  17:33:02.553023	1.016771E+0	2.368992E-3	8.659677E-3	2.452024E-3	2.185968E-3	1.074603E-2	1.829210E-3	2.810192E-3
10/19/2017  17:33:02.554023	8.272783E-1	6.172573E-3	9.738193E-3	4.944621E-3	6.929647E-3	1.629181E-3	1.458479E-2	1.030658E-3
10/19/2017  17:33:02.555023	4.100387E-1	4.306230E-3	1.612258E-2	8.745265E-3	1.629564E-4	5.813700E-3	3.656848E-3	1.677343E-2
10/19/2017  17:33:02.556023	1.188603E-1	7.322015E-3	1.606896E-3	1.328505E-2	4.355501E-4	4.377613E-3	4.443845E-3	1.010600E-2
10/19/2017  17:33:02.557023	3.421722E-1	2.641115E-3	1.647854E-2	2.979264E-3	3.058080E-3	2.868263E-3	7.981352E-3	5.023651E-4
10/19/2017  17:33:02.558023	2.815363E-1	1.386550E-2	4.960323E-4	4.617626E-3	7.011329E-3	4.853093E-3	3.731496E-3	4.324507E-3
10/19/2017  17:33:02.559023	9.133010E-1	3.571145E-3	4.610910E-3	5.594114E-3	1.261579E-3	1.452975E-2	8.111368E-3	3.326721E-3
10/19/2017  17:33:02.560023	1.370834E+0	6.156850E-3	8.125886E-3	2.581291E-3	2.823878E-3	2.934176E-3	1.132428E-3	6.150170E-3
10/19/2017  17:33:02.561023	9.402681E-2	8.549347E-3	3.828170E-3	1.049494E-2	5.257166E-4	3.095312E-4	2.477592E-3	6.178842E-3
10/19/2017  17:33:02.562023	8.751195E-2	5.274444E-3	4.874901E-3	2.705294E-3	7.263131E-3	6.068975E-4	3.202435E-3	6.255611E-4
10/19/2017  17:33:02.563023	4.967488E-1	2.088016E-3	1.096712E-3	1.217169E-3	9.680561E-4	5.639527E-3	2.892270E-3	5.577233E-3
10/19/2017  17:33:02.564023	1.321196E-1	4.578789E-3	1.100684E-3	8.639522E-3	7.948363E-3	9.716775E-4	2.587975E-3	1.111605E-2
10/19/2017  17:33:02.565023	4.256295E-1	1.670780E-3	4.757305E-3	2.942088E-4	1.019294E-3	5.756476E-3	2.023710E-3	4.788944E-4
10/19/2017  17:33:02.566023	1.015195E+0	8.306764E-3	2.802916E-3	2.972928E-3	1.873827E-3	2.519286E-3	3.051666E-3	4.472714E-3
								
10/19/2017  17:33:02.567023	6.768160E-1	2.130181E-4	5.280152E-3	4.992534E-4	3.890758E-3	1.306610E-2	5.033134E-3	2.799475E-3
10/19/2017  17:33:02.568023	3.611611E-1	2.314158E-3	2.284914E-3	7.384946E-3	5.646126E-3	2.799201E-3	4.201327E-3	7.355661E-4
10/19/2017  17:33:02.569023	1.448513E+0	1.881541E-3	2.083759E-3	7.405409E-3	5.067405E-3	3.886039E-3	3.442112E-3	5.454916E-3
10/19/2017  17:33:02.570023	1.322858E+0	7.961949E-3	7.877860E-3	3.922000E-3	1.556613E-2	4.188171E-3	3.719345E-3	8.639557E-3
10/19/2017  17:33:02.571023	6.924215E-1	9.963494E-4	1.773034E-3	1.193921E-2	4.948049E-3	5.255195E-3	5.736188E-5	2.498236E-4
10/19/2017  17:33:02.572023	3.228446E-3	5.278462E-3	2.680981E-3	2.270542E-3	8.733188E-3	3.347823E-3	1.708717E-3	1.096715E-2
10/19/2017  17:33:02.573023	2.693341E-1	5.985659E-3	2.898617E-3	1.609663E-3	8.926771E-3	1.347802E-3	1.015565E-2	3.058058E-3
10/19/2017  17:33:02.574023	1.762144E-1	2.412197E-3	8.966713E-3	3.227047E-3	1.081394E-2	1.864525E-3	7.453224E-3	2.008737E-2
10/19/2017  17:33:02.575023	1.298348E-3	6.194925E-3	2.124254E-3	1.520090E-2	2.970207E-3	4.148069E-3	2.978238E-3	3.457379E-3
10/19/2017  17:33:02.576023	7.019505E-1	2.145138E-3	5.086120E-3	2.497066E-3	7.225869E-3	3.488355E-3	6.908392E-3	1.303742E-2
10/19/2017  17:33:02.577023	6.976426E-1	9.535654E-3	3.587336E-3	1.085822E-2	1.333611E-3	2.882999E-3	5.659648E-3	7.074103E-3
10/19/2017  17:33:02.578023	1.462186E+0	2.582639E-4	1.060906E-2	3.034206E-3	2.904078E-3	6.302973E-3	2.863244E-3	4.034632E-3
10/19/2017  17:33:02.579023	1.523975E+0	4.276691E-3	1.274550E-3	7.666512E-5	5.749284E-3	4.665651E-3	1.264910E-2	7.552461E-3
10/19/2017  17:33:02.580023	1.044325E+0	3.021728E-3	7.655333E-3	1.987928E-3	3.379402E-3	1.237632E-2	2.739885E-3	3.259980E-3
10/19/2017  17:33:02.581023	3.632834E-1	2.360835E-3	3.193436E-3	3.122577E-3	9.170041E-4	8.163816E-5	9.488740E-3	7.793020E-6
10/19/2017  17:33:02.582023	6.984222E-1	3.214232E-4	4.277217E-3	1.958236E-3	1.128080E-2	6.653202E-3	7.527548E-3	2.384435E-4
10/19/2017  17:33:02.583023	1.288795E+0	1.073574E-2	1.322774E-3	5.297230E-3	4.483726E-3	6.905199E-3	3.666576E-3	4.320105E-4
10/19/2017  17:33:02.584023	1.125083E+0	3.094883E-3	5.283380E-3	3.813110E-3	9.217619E-3	1.050148E-2	5.723155E-3	4.907421E-3
10/19/2017  17:33:02.585023	1.102653E+0	6.895346E-3	5.706837E-3	3.914386E-3	1.285242E-3	5.277000E-3	1.395632E-3	7.176292E-3
10/19/2017  17:33:02.586023	1.445654E+0	5.160705E-3	7.808107E-4	4.981006E-3	8.901571E-3	9.267222E-4	3.995251E-3	2.559818E-3
10/19/2017  17:33:02.587023	1.096362E+0	6.445892E-4	7.640441E-3	3.343585E-3	7.248088E-3	5.404171E-3	7.742544E-3	5.257171E-3
10/19/2017  17:33:02.588023	1.336505E-1	4.807492E-3	2.839525E-3	1.098557E-2	5.766632E-3	2.370844E-3	6.783465E-4	1.501587E-2
10/19/2017  17:33:02.589023	4.446537E-1	1.184022E-2	3.734565E-3	1.001662E-2	2.284634E-3	9.446330E-3	4.542620E-3	2.378993E-3
10/19/2017  17:33:02.590023	4.947055E-1	2.636878E-3	2.328228E-3	6.288004E-3	1.830448E-3	2.433620E-3	5.850290E-3	1.857917E-3
10/19/2017  17:33:02.591023	2.692992E-1	6.448122E-3	4.488923E-3	8.148405E-3	7.893048E-3	7.046212E-3	2.293591E-3	5.070231E-3
10/19/2017  17:33:02.592023	7.352335E-1	3.077265E-4	1.020687E-2	7.324513E-3	1.036136E-3	5.885906E-4	3.942497E-3	3.141215E-3
10/19/2017  17:33:02.593023	8.211876E-1	7.381568E-3	3.403799E-3	4.155957E-3	8.969128E-3	6.271004E-3	6.179643E-4	2.956018E-4
10/19/2017  17:33:02.594023	1.595051E+0	7.636603E-4	6.564638E-3	2.744760E-3	9.622110E-3	4.459161E-3	3.266291E-4	2.564696E-3
10/19/2017  17:33:02.595023	2.754477E+0	6.553779E-3	1.241117E-4	1.634371E-2	1.184129E-2	7.852978E-3	4.385781E-3	2.277093E-4
10/19/2017  17:33:02.596023	2.454794E+0	4.273293E-4	1.361158E-2	1.700198E-3	4.362037E-3	9.883971E-3	1.567770E-3	4.251783E-3
10/19/2017  17:33:02.597023	1.787848E+0	1.198127E-2	3.270217E-3	2.388426E-4	2.808043E-3	8.570638E-3	6.379927E-4	5.118074E-3
10/19/2017  17:33:02.598023	2.101527E-1	9.004370E-3	8.672582E-3	2.217587E-2	9.312906E-3	1.286953E-2	6.487457E-3	9.628635E-3
10/19/2017  17:33:02.599023	1.732338E+0	1.081785E-2	3.933410E-3	2.721613E-3	2.509751E-3	4.059164E-3	1.583003E-3	3.938764E-4
								
10/19/2017  17:33:02.600023	1.331542E+0	5.630909E-3	1.826942E-3	2.836405E-3	1.842765E-3	1.392789E-2	8.131976E-4	1.960386E-3
10/19/2017  17:33:02.601023	1.146066E+0	4.279686E-3	1.583898E-3	2.991205E-4	5.202983E-3	5.521845E-3	2.337849E-3	5.066838E-3
10/19/2017  17:33:02.602023	3.021800E-1	7.420815E-3	2.977568E-3	1.472162E-3	5.126288E-3	8.509882E-3	1.037491E-3	9.081125E-4
10/19/2017  17:33:02.603023	6.382259E-1	6.739862E-4	4.681175E-3	2.604249E-3	1.527753E-3	4.837706E-3	9.948145E-3	8.699180E-4
10/19/2017  17:33:02.604023	1.194305E+0	4.268515E-3	1.345782E-3	3.211090E-3	5.455951E-3	5.597486E-3	8.361725E-4	1.161069E-2
10/19/2017  17:33:02.605023	1.491463E+0	1.204954E-3	5.446144E-3	5.246046E-3	1.021997E-2	9.238245E-3	1.436950E-3	6.275623E-4
10/19/2017  17:33:02.606023	1.673475E+0	3.300725E-3	9.348657E-3	1.552015E-2	2.313540E-3	6.551762E-3	2.996108E-3	7.287529E-3
10/19/2017  17:33:02.607023	1.625614E+0	6.102203E-3	1.234544E-4	9.307249E-3	5.727572E-3	2.185846E-3	8.985994E-3	7.451128E-3
10/19/2017  17:33:02.608023	1.725975E+0	4.715658E-3	4.397358E-3	9.733378E-5	1.132853E-2	1.938874E-3	6.419924E-3	1.436969E-2
10/19/2017  17:33:02.609023	3.069665E-1	3.698420E-3	1.162472E-3	4.388264E-3	2.649089E-4	6.020384E-3	2.221415E-3	9.989858E-3
10/19/2017  17:33:02.610023	4.984198E-1	7.141105E-3	7.726943E-4	1.222158E-3	8.725336E-3	2.221629E-3	1.905249E-3	2.313828E-3
10/19/2017  17:33:02.611023	4.289393E-1	5.812298E-3	4.311542E-4	1.271244E-3	2.515005E-3	5.857371E-3	5.935757E-3	1.330160E-2
10/19/2017  17:33:02.612023	8.792931E-1	2.566074E-2	2.295454E-3	5.636498E-3	4.019041E-3	6.925167E-3	4.366347E-3	5.537961E-3
10/19/2017  17:33:02.613023	5.381648E-1	2.310821E-3	5.143240E-3	3.863905E-3	1.022281E-2	7.198947E-4	2.940365E-3	6.775569E-3
10/19/2017  17:33:02.614023	5.745026E-1	2.678761E-2	5.028372E-4	4.541873E-3	4.841511E-3	3.776801E-3	1.749824E-3	4.529037E-3
10/19/2017  17:33:02.615023	7.632648E-2	6.555159E-3	4.520792E-3	1.034896E-2	5.800844E-3	4.671491E-3	3.543818E-3	4.828984E-3
10/19/2017  17:33:02.616023	6.927633E-2	3.184920E-4	2.850687E-3	9.832186E-3	1.325219E-2	3.563056E-3	7.582155E-4	1.034145E-2
10/19/2017  17:33:02.617023	8.295963E-1	6.364416E-3	2.855840E-3	3.956650E-3	7.154666E-4	7.202972E-3	3.064199E-3	7.882305E-3
10/19/2017  17:33:02.618023	5.919979E-1	2.257691E-3	4.107945E-4	1.401334E-3	1.052088E-2	1.288945E-3	2.449692E-3	5.036916E-3
10/19/2017  17:33:02.619023	4.249353E-1	5.129804E-3	5.161815E-3	1.166185E-2	2.974924E-3	8.697879E-4	4.565814E-3	3.159757E-3
10/19/2017  17:33:02.620023	6.885675E-1	1.583085E-3	2.522235E-4	1.189223E-3	2.632138E-3	4.842721E-3	2.916659E-3	1.874770E-3
10/19/2017  17:33:02.621023	1.771484E+0	1.103986E-3	2.371495E-3	1.080268E-2	4.425036E-3	3.327220E-3	9.227212E-3	5.377651E-3
10/19/2017  17:33:02.622023	1.618624E+0	5.006553E-3	4.459524E-3	2.391890E-2	3.375755E-3	2.599622E-3	6.779884E-3	4.505723E-4
10/19/2017  17:33:02.623023	6.328649E-1	7.556307E-3	3.817355E-3	4.693071E-3	1.851453E-3	6.279783E-3	3.937347E-3	6.144238E-3
10/19/2017  17:33:02.624023	1.585926E+0	9.808280E-3	5.316475E-3	5.774612E-3	9.684157E-4	2.165490E-3	7.051760E-4	1.939169E-3
10/19/2017  17:33:02.625023	3.683058E+0	4.137171E-3	3.118919E-4	1.989906E-4	7.999212E-4	2.622659E-3	5.154626E-4	1.234425E-3
10/19/2017  17:33:02.626023	3.371110E+0	3.215275E-3	8.611559E-3	8.830949E-3	3.679438E-3	2.711165E-3	1.792358E-3	1.365917E-3
10/19/2017  17:33:02.627023	5.900713E-1	2.408588E-3	6.970761E-3	6.000813E-3	4.095075E-3	2.137145E-3	7.673057E-3	1.457026E-3
10/19/2017  17:33:02.628023	1.328989E+0	4.766041E-3	6.129182E-4	1.362437E-2	1.167950E-2	5.146794E-4	2.888094E-3	7.122454E-3
10/19/2017  17:33:02.629023	1.725576E+0	3.234595E-3	3.987113E-3	1.202095E-2	9.382862E-3	4.543341E-3	2.908423E-3	4.366754E-3
10/19/2017  17:33:02.630023	1.349159E+0	4.104886E-3	6.233653E-4	2.689377E-3	1.549056E-2	3.585006E-3	9.169910E-3	1.251782E-2
10/19/2017  17:33:02.631023	6.989239E-1	5.909902E-3	3.074310E-4	6.742656E-3	4.647920E-3	7.144438E-3	3.511228E-4	7.064444E-3
10/19/2017  17:33:02.632023	7.613698E-1	6.370251E-3	6.441789E-3	1.400205E-3	6.001535E-3	7.228308E-3	3.835889E-3	3.658240E-3
								
10/19/2017  17:33:02.633023	1.342131E+0	4.219787E-3	2.240380E-4	6.776358E-4	2.384606E-4	3.860086E-3	4.142730E-3	4.739402E-3
10/19/2017  17:33:02.634023	3.861518E+0	8.370614E-3	6.419043E-3	1.072115E-2	4.215071E-4	1.169872E-2	3.252760E-3	5.287040E-3
10/19/2017  17:33:02.635023	3.425754E+0	4.149821E-3	9.160325E-5	1.414115E-2	2.712235E-3	2.622237E-3	1.839071E-3	3.231139E-3
10/19/2017  17:33:02.636023	1.904796E-2	3.372159E-3	2.341438E-3	1.355632E-3	4.244862E-3	1.499094E-2	1.094676E-3	9.256757E-3
10/19/2017  17:33:02.637023	3.570264E+0	6.499412E-3	6.174894E-3	1.034832E-2	1.163638E-2	5.547378E-4	9.121743E-3	4.550599E-3
10/19/2017  17:33:02.638023	3.506773E+0	2.532690E-3	2.184586E-3	1.422197E-2	3.397671E-3	9.613896E-3	6.620904E-4	3.379642E-3
10/19/2017  17:33:02.639023	1.942425E+0	1.716249E-3	7.945641E-4	3.377751E-3	1.557087E-3	7.091276E-3	7.736373E-3	4.637040E-3
10/19/2017  17:33:02.640023	2.400739E-1	1.036839E-3	5.071928E-3	1.836175E-3	1.508018E-2	6.272573E-4	1.036095E-2	1.142194E-3
10/19/2017  17:33:02.641023	3.537811E-1	5.994944E-3	7.915086E-3	1.023337E-2	1.778040E-2	8.395253E-3	9.918011E-4	1.172902E-2
10/19/2017  17:33:02.642023	1.369327E+0	6.474955E-3	9.274420E-4	1.203141E-2	2.729478E-3	1.560926E-3	6.530492E-4	1.518348E-3
10/19/2017  17:33:02.643023	1.249454E+0	3.024884E-5	1.067867E-2	1.757514E-4	2.066564E-3	3.446140E-3	3.962402E-3	1.027672E-2
10/19/2017  17:33:02.644023	2.274158E-1	3.272049E-4	5.621311E-3	1.329087E-2	1.103000E-3	4.286918E-4	3.664018E-3	7.544917E-3
10/19/2017  17:33:02.645023	2.018247E-1	4.920256E-3	4.756775E-3	4.826600E-3	3.374994E-3	6.874126E-3	3.341686E-4	3.399186E-3
10/19/2017  17:33:02.646023	1.142946E+0	2.767537E-3	1.201233E-2	1.234527E-2	2.724874E-3	4.709988E-3	2.204731E-3	3.359215E-4
10/19/2017  17:33:02.647023	1.386810E+0	1.031392E-2	4.946250E-3	6.901013E-3	1.124502E-5	7.896843E-3	3.062342E-3	4.045197E-3
10/19/2017  17:33:02.648023	5.601705E-1	6.360464E-3	2.962323E-4	4.824402E-3	2.362066E-3	1.448628E-2	2.438274E-3	3.784999E-3
10/19/2017  17:33:02.649023	8.407589E-1	7.341084E-3	3.063469E-4	1.239813E-3	1.046365E-2	7.351448E-3	6.221748E-3	5.853953E-3
10/19/2017  17:33:02.650023	5.304471E-1	5.583538E-3	5.090856E-3	9.906086E-3	1.510796E-3	1.629068E-2	2.116720E-3	6.037124E-3
10/19/2017  17:33:02.651023	9.904362E-1	4.567975E-3	3.014805E-4	5.897023E-3	7.937396E-3	1.786369E-3	8.019782E-3	2.781199E-3
10/19/2017  17:33:02.652023	7.958831E-1	8.734852E-4	2.334469E-3	4.036324E-3	3.564769E-3	6.138796E-3	9.717873E-3	9.050107E-3
10/19/2017  17:33:02.653023	1.065813E-1	3.193028E-4	8.465502E-3	4.642680E-3	1.057023E-2	2.553990E-3	1.114883E-2	2.378823E-3
10/19/2017  17:33:02.654023	3.466842E-1	4.426596E-3	6.009413E-3	1.246507E-2	1.384834E-3	6.598263E-3	6.307624E-3	2.534721E-3
10/19/2017  17:33:02.655023	5.209251E-1	7.646340E-3	1.334705E-2	4.802367E-3	7.795389E-3	9.818565E-5	2.563081E-3	2.676493E-3
10/19/2017  17:33:02.656023	7.142954E-1	3.116814E-3	7.762707E-4	1.222881E-3	3.409947E-3	1.143716E-2	8.869363E-3	4.144332E-3
10/19/2017  17:33:02.657023	1.891029E+0	4.651000E-3	1.839318E-3	3.586792E-3	6.407625E-3	4.645659E-3	4.909213E-3	1.482892E-3
10/19/2017  17:33:02.658023	2.758501E+0	7.917460E-3	7.963260E-3	6.064160E-3	2.370479E-3	3.424282E-3	8.165849E-3	1.174458E-3
10/19/2017  17:33:02.659023	6.198403E-1	3.024473E-3	1.192611E-3	6.234922E-3	1.506570E-3	1.249748E-2	1.512148E-3	5.236284E-3
10/19/2017  17:33:02.660023	1.973572E+0	1.722745E-2	8.093322E-3	8.184785E-3	7.860308E-3	2.547795E-3	5.519863E-3	1.452201E-3
10/19/2017  17:33:02.661023	4.229999E+0	7.929919E-3	7.952446E-3	1.463044E-2	3.057856E-3	1.979265E-2	4.520870E-4	7.821115E-3
10/19/2017  17:33:02.662023	3.679349E+0	1.064897E-2	9.801021E-3	2.397398E-2	2.125909E-3	3.244560E-3	6.891825E-3	1.180130E-3
10/19/2017  17:33:02.663023	3.335119E+0	5.107010E-3	9.181285E-3	6.556598E-4	5.675718E-3	4.546289E-3	2.567827E-3	3.682878E-3
10/19/2017  17:33:02.664023	1.482656E+0	3.242014E-3	4.679876E-3	3.177333E-3	7.103237E-4	8.007818E-4	2.856180E-3	1.595460E-3
10/19/2017  17:33:02.665023	1.647810E+0	2.665933E-3	6.247789E-4	1.394046E-3	3.150518E-3	1.901743E-3	1.940389E-4	7.460511E-3
								
10/19/2017  17:33:02.666023	1.380193E+0	2.154269E-3	2.213965E-3	6.524867E-3	4.794453E-3	3.799332E-3	2.615878E-3	1.028573E-2
10/19/2017  17:33:02.667023	1.485778E+0	4.559949E-4	5.431629E-3	9.849436E-3	3.609326E-3	3.614551E-3	4.266650E-3	1.041578E-3
10/19/2017  17:33:02.668023	1.718401E+0	4.172806E-3	2.093000E-3	7.520430E-3	1.124114E-2	4.194715E-3	5.272318E-3	1.331393E-3
10/19/2017  17:33:02.669023	1.046307E+0	3.474836E-3	6.101713E-3	7.449477E-3	1.036539E-3	1.019739E-3	1.431272E-3	5.123082E-3
10/19/2017  17:33:02.670023	3.606608E-1	8.447924E-3	4.237523E-3	5.904608E-4	1.075214E-2	5.610505E-3	1.422959E-3	3.203699E-3
10/19/2017  17:33:02.671023	8.866031E-1	7.108791E-3	2.839776E-3	4.234738E-3	7.976349E-3	1.461510E-3	1.279228E-3	9.085513E-3
10/19/2017  17:33:02.672023	1.341330E+0	9.362024E-3	4.799872E-3	1.066039E-2	1.293647E-3	8.115859E-3	1.136404E-3	4.276781E-3
10/19/2017  17:33:02.673023	7.202991E-1	6.735304E-3	6.976503E-4	7.963442E-3	7.388854E-4	8.197352E-3	5.311314E-3	1.562253E-3
10/19/2017  17:33:02.674023	3.319851E-1	5.093484E-3	2.451751E-3	5.645130E-3	8.365428E-3	7.551174E-4	2.714265E-3	3.565556E-3
10/19/2017  17:33:02.675023	8.526043E-2	1.522650E-3	7.364405E-4	2.806438E-3	6.091056E-4	7.077803E-4	8.372636E-3	3.769743E-3
10/19/2017  17:33:02.676023	3.881585E-1	1.192168E-2	8.619818E-4	1.986733E-3	7.059255E-3	2.815451E-3	5.218382E-3	2.380377E-3
10/19/2017  17:33:02.677023	3.526800E-2	9.175212E-3	5.252605E-3	9.729019E-4	1.602035E-3	4.421754E-3	2.470392E-3	5.241273E-3
10/19/2017  17:33:02.678023	2.604379E-1	2.375045E-3	2.618033E-3	2.024249E-3	1.210254E-2	7.817690E-4	5.075498E-3	6.202753E-3
10/19/2017  17:33:02.679023	1.643021E-1	2.638060E-3	2.635047E-3	2.328209E-3	2.548311E-3	4.575317E-3	3.819086E-3	6.332781E-3
10/19/2017  17:33:02.680023	1.860308E-1	4.657305E-3	6.296629E-3	5.287795E-3	2.125031E-3	1.452794E-2	1.578493E-3	6.526498E-3
10/19/2017  17:33:02.681023	1.857223E-1	7.523034E-3	1.446290E-5	3.712158E-3	1.141169E-3	8.205383E-3	3.230567E-3	9.017324E-3
10/19/2017  17:33:02.682023	4.000503E-1	1.593827E-3	4.592607E-3	7.955256E-3	9.977234E-3	9.706174E-3	4.374328E-3	1.736131E-3
10/19/2017  17:33:02.683023	5.058908E-1	1.893411E-2	1.225962E-3	2.076227E-3	7.249200E-3	2.758811E-3	1.506326E-3	3.637542E-3
10/19/2017  17:33:02.684023	6.134401E-1	6.129771E-3	3.398140E-3	3.914424E-5	8.043991E-3	1.099999E-2	7.866836E-3	9.547841E-3
10/19/2017  17:33:02.685023	7.236604E-2	4.480143E-3	7.114014E-5	2.809331E-3	5.100694E-3	9.512914E-4	2.999247E-3	4.363617E-4
10/19/2017  17:33:02.686023	6.235243E-1	3.077065E-3	4.517101E-3	9.095742E-3	7.830246E-3	6.376626E-3	6.359727E-3	1.825165E-3
10/19/2017  17:33:02.687023	4.805686E-1	4.576813E-3	1.155950E-3	1.898419E-3	5.747671E-3	4.923750E-3	6.647008E-3	7.426809E-3
10/19/2017  17:33:02.688023	6.206016E-2	8.899559E-4	1.306844E-3	3.237123E-3	8.813067E-3	2.807717E-3	4.949106E-3	3.529943E-3
10/19/2017  17:33:02.689023	9.077053E-2	4.766674E-3	8.494639E-4	6.784129E-3	1.975374E-3	1.757484E-3	2.966508E-3	6.956987E-3
10/19/2017  17:33:02.690023	5.583083E-1	8.320050E-4	4.650062E-4	9.000998E-3	5.210672E-3	7.735602E-3	2.053624E-3	1.692068E-3
10/19/2017  17:33:02.691023	1.010292E+0	8.559476E-3	2.012525E-3	2.840046E-3	2.834321E-3	1.272956E-3	5.184369E-3	7.857389E-3
10/19/2017  17:33:02.692023	3.074859E-1	2.309679E-3	3.720923E-3	1.347482E-2	8.498735E-3	8.681262E-4	3.691371E-3	1.020144E-3
10/19/2017  17:33:02.693023	1.233922E+0	1.377974E-3	3.853286E-3	1.041097E-3	8.176540E-4	5.955314E-3	1.880936E-3	1.817694E-2
10/19/2017  17:33:02.694023	1.395183E+0	1.540129E-3	5.993003E-3	7.100597E-3	5.364531E-3	6.667721E-3	5.823814E-3	4.863525E-3
10/19/2017  17:33:02.695023	1.667575E+0	1.007150E-2	4.168639E-3	8.346665E-3	2.338137E-4	3.310082E-4	1.923389E-3	1.480488E-2
10/19/2017  17:33:02.696023	2.125040E-1	3.673928E-3	3.837353E-3	1.912576E-2	9.228580E-5	1.074650E-2	5.304172E-3	2.450200E-3
10/19/2017  17:33:02.697023	1.276543E+0	1.341488E-2	2.970648E-3	1.289319E-2	2.505904E-3	5.512979E-3	5.150345E-4	6.142877E-3
10/19/2017  17:33:02.698023	4.296455E+0	8.270886E-3	4.257950E-3	5.143394E-3	1.843753E-4	4.022913E-3	3.669366E-4	2.274544E-3
								
10/19/2017  17:33:02.699023	1.266567E+0	1.490507E-2	5.864254E-3	1.012272E-2	2.223965E-3	5.881107E-3	2.431137E-4	1.764616E-3
10/19/2017  17:33:02.700023	1.201937E+0	6.919430E-3	2.095204E-3	1.919250E-3	3.860679E-3	2.008995E-4	2.298782E-3	5.157668E-3
10/19/2017  17:33:02.701023	8.707940E-1	1.394155E-3	1.007668E-2	4.081360E-3	5.257850E-4	2.563498E-4	6.493685E-4	1.261752E-3
10/19/2017  17:33:02.702023	3.248034E-1	8.157439E-4	2.085956E-4	3.341155E-3	2.449983E-4	4.603719E-3	8.034738E-3	8.099656E-3
10/19/2017  17:33:02.703023	1.361579E+0	4.647918E-3	2.645469E-3	7.011392E-3	1.080853E-2	1.120790E-3	7.686681E-3	3.683657E-3
10/19/2017  17:33:02.704023	7.840243E-1	6.733585E-4	4.002847E-3	7.054955E-4	1.202705E-3	8.906297E-4	1.421321E-3	8.316117E-3
10/19/2017  17:33:02.705023	3.705875E-1	6.594770E-3	4.414232E-3	2.611061E-3	3.325735E-3	5.777958E-3	1.171663E-3	6.862663E-4
10/19/2017  17:33:02.706023	1.377791E+0	7.852564E-3	8.175438E-3	6.948348E-3	9.041151E-3	5.043807E-4	1.214154E-3	6.686185E-4
10/19/2017  17:33:02.707023	9.869187E-1	5.903110E-3	8.386224E-3	3.768140E-3	2.557856E-4	1.433201E-3	2.870604E-3	9.264450E-3
10/19/2017  17:33:02.708023	9.221124E-3	1.127851E-2	2.643035E-3	9.155044E-3	1.129986E-2	1.596986E-3	4.713658E-3	2.257324E-3
10/19/2017  17:33:02.709023	1.317604E-1	8.179345E-3	8.962415E-3	6.852506E-3	5.056112E-3	8.065861E-3	2.977518E-3	6.165248E-3
10/19/2017  17:33:02.710023	1.119164E+0	9.217138E-4	6.080900E-3	5.668912E-3	2.871244E-3	4.891865E-3	2.597164E-4	4.238666E-3
10/19/2017  17:33:02.711023	1.242109E+0	7.468277E-3	1.145252E-2	3.592636E-3	2.368670E-3	5.344257E-3	4.749179E-3	5.045526E-3
10/19/2017  17:33:02.712023	5.547694E-1	7.567120E-3	1.064609E-2	8.919776E-3	6.030348E-3	9.725996E-3	5.607787E-3	9.749135E-3
10/19/2017  17:33:02.713023	6.010152E-1	2.913564E-3	3.105111E-3	4.040798E-3	1.877875E-3	7.346577E-4	5.257413E-4	1.606527E-3
10/19/2017  17:33:02.714023	2.016756E-1	6.168159E-4	8.968482E-3	4.511803E-3	5.253100E-3	3.603469E-3	7.108966E-3	9.699404E-3
10/19/2017  17:33:02.715023	1.509833E+0	9.659191E-3	1.081421E-2	8.909844E-3	9.924626E-3	6.900788E-5	5.720081E-3	2.221699E-3
10/19/2017  17:33:02.716023	1.408577E+0	3.666797E-3	7.267258E-3	1.866169E-2	5.300387E-3	4.662289E-3	3.888551E-3	2.154670E-2
10/19/2017  17:33:02.717023	7.213408E-1	2.278738E-3	6.474908E-3	2.476147E-2	4.745196E-3	3.552705E-3	1.945491E-4	4.252403E-3
10/19/2017  17:33:02.718023	2.895246E-1	9.652680E-3	1.181315E-2	9.299442E-5	9.245874E-4	2.587790E-3	6.839384E-3	1.831389E-4
10/19/2017  17:33:02.719023	3.037541E-1	7.027440E-3	4.338768E-3	7.854454E-4	1.898417E-3	3.915270E-3	5.633796E-3	1.145907E-2
10/19/2017  17:33:02.720023	1.878224E+0	4.798168E-3	3.414085E-3	9.975721E-3	3.872442E-3	2.499049E-3	1.372411E-3	2.095067E-3
10/19/2017  17:33:02.721023	1.996680E+0	1.002181E-2	1.942654E-3	1.080345E-3	8.053825E-4	3.473124E-3	1.260046E-2	4.054007E-4
10/19/2017  17:33:02.722023	5.910975E-1	1.163209E-2	1.217419E-2	3.313113E-3	1.433090E-3	3.684746E-4	4.851301E-3	2.147088E-3
10/19/2017  17:33:02.723023	3.467930E+0	9.338887E-3	5.021577E-4	1.674092E-3	8.074509E-4	7.510889E-3	7.430380E-3	6.058305E-3
10/19/2017  17:33:02.724023	4.904847E+0	4.599755E-3	2.047881E-2	5.151677E-3	4.019891E-3	8.053439E-3	5.145339E-3	4.225866E-5
10/19/2017  17:33:02.725023	2.019972E+0	9.827939E-3	2.759871E-3	5.205726E-3	2.989007E-3	5.296188E-4	1.076671E-3	2.024868E-3
10/19/2017  17:33:02.726023	1.513202E+0	3.977275E-3	6.695000E-5	5.873503E-3	4.391569E-3	8.439593E-3	7.699675E-3	9.207040E-4
10/19/2017  17:33:02.727023	6.469770E-1	5.111016E-3	8.699035E-3	7.179712E-3	9.511520E-3	5.871900E-3	5.658285E-3	5.607239E-3
10/19/2017  17:33:02.728023	1.049181E-1	7.842217E-3	3.793371E-3	1.432474E-2	1.920442E-3	3.717783E-3	4.714429E-3	2.940974E-3
10/19/2017  17:33:02.729023	7.996069E-1	1.433239E-2	8.598975E-3	3.697023E-3	1.449939E-2	4.538876E-3	3.351151E-3	9.007338E-3
10/19/2017  17:33:02.730023	1.268882E+0	3.763024E-3	2.270700E-3	1.495839E-2	1.877489E-3	4.572453E-4	2.214923E-3	2.191309E-3
10/19/2017  17:33:02.731023	2.244962E+0	4.032845E-3	8.331510E-4	1.791054E-3	2.982369E-3	6.814006E-3	8.755164E-4	6.596415E-4
								
10/19/2017  17:33:02.732023	1.607679E+0	8.406503E-4	1.258363E-3	7.796350E-3	4.460920E-3	5.302807E-3	5.234185E-3	5.946404E-3
10/19/2017  17:33:02.733023	1.749260E+0	4.983009E-3	1.646269E-3	1.651345E-2	7.433752E-3	2.487175E-3	5.977118E-3	1.333189E-2
10/19/2017  17:33:02.734023	5.349511E-1	9.063036E-4	1.536012E-3	3.932934E-3	4.860045E-3	4.981116E-3	4.573039E-3	1.459145E-3
10/19/2017  17:33:02.735023	2.942659E+0	5.123189E-3	1.413889E-3	1.422477E-2	3.782362E-3	7.976073E-3	1.197473E-3	3.430795E-3
10/19/2017  17:33:02.736023	3.957724E+0	7.038837E-4	7.355172E-3	5.845282E-4	9.912371E-3	1.108221E-3	5.587047E-3	2.548409E-3
10/19/2017  17:33:02.737023	9.944130E-1	7.028749E-3	3.981883E-3	4.112700E-4	3.107297E-3	8.249557E-3	5.872902E-3	3.611348E-4
10/19/2017  17:33:02.738023	1.427773E+0	4.770767E-3	1.416494E-2	6.738104E-3	8.397241E-3	3.846836E-3	7.190551E-3	4.032269E-3
10/19/2017  17:33:02.739023	2.436582E+0	7.906439E-3	3.574208E-3	6.324349E-3	1.107968E-3	8.127256E-3	5.530643E-3	6.997372E-3
10/19/2017  17:33:02.740023	1.840767E+0	3.754910E-3	1.288783E-2	1.762698E-2	2.091040E-3	3.407099E-3	2.060212E-4	4.178341E-3
10/19/2017  17:33:02.741023	4.010487E-1	7.079424E-3	1.750671E-3	3.150849E-3	6.526091E-3	1.967995E-3	5.328432E-6	9.920149E-3
10/19/2017  17:33:02.742023	3.658167E-2	5.974752E-3	1.418251E-3	7.899786E-3	8.125432E-4	7.849691E-3	2.332481E-3	3.652434E-3
10/19/2017  17:33:02.743023	1.165071E-1	4.323446E-3	1.113787E-3	1.859336E-3	1.141851E-3	2.664422E-3	3.913710E-3	1.856914E-3
10/19/2017  17:33:02.744023	7.951827E-1	3.544162E-3	3.481845E-3	1.752776E-2	6.192052E-3	7.915980E-3	3.758774E-3	5.046718E-3
10/19/2017  17:33:02.745023	2.856750E-1	2.577198E-3	2.006170E-3	6.448986E-3	1.770290E-3	5.997091E-3	2.638294E-3	3.180857E-3
10/19/2017  17:33:02.746023	4.676833E-2	4.719149E-3	2.771981E-3	6.812649E-3	1.247095E-3	2.855867E-3	3.855311E-3	2.502503E-3
10/19/2017  17:33:02.747023	7.100091E-1	9.757529E-3	1.762781E-3	4.565667E-3	3.377132E-3	4.832121E-3	1.946193E-3	8.382474E-3
10/19/2017  17:33:02.748023	1.603627E+0	6.518934E-3	9.855089E-3	1.645678E-3	3.894250E-3	3.910650E-3	2.563739E-3	5.053533E-3
10/19/2017  17:33:02.749023	2.902106E-1	5.025581E-3	4.846547E-4	8.275718E-3	2.454327E-3	9.266101E-4	2.973498E-3	5.899224E-4
10/19/2017  17:33:02.750023	1.050234E+0	3.733950E-3	6.312864E-3	1.923284E-3	9.531826E-3	3.059380E-3	3.928365E-3	2.924601E-4
10/19/2017  17:33:02.751023	1.691045E+0	3.847724E-3	4.455889E-3	9.183763E-3	1.339911E-2	1.343602E-4	4.657373E-5	4.362691E-3
10/19/2017  17:33:02.752023	1.186261E+0	4.817872E-3	1.409987E-3	1.022485E-2	3.953471E-3	8.803962E-3	1.358821E-2	2.745098E-3
10/19/2017  17:33:02.753023	2.706654E+0	3.352078E-3	9.899486E-3	6.875399E-3	5.520062E-3	1.245007E-2	7.698280E-3	7.519966E-4
10/19/2017  17:33:02.754023	2.990790E+0	6.938700E-3	4.268370E-4	2.330181E-2	4.287087E-3	1.148155E-2	9.205468E-4	5.448277E-3
10/19/2017  17:33:02.755023	2.342789E-2	5.631583E-4	2.925885E-5	1.703206E-3	1.087438E-3	1.747970E-2	6.206475E-3	6.487015E-3
10/19/2017  17:33:02.756023	9.646061E-1	1.319163E-2	6.777042E-3	9.610962E-3	1.615864E-3	2.720098E-3	4.618173E-3	6.850263E-3
10/19/2017  17:33:02.757023	1.084252E+0	8.595541E-3	3.724193E-3	2.409990E-5	8.070574E-4	8.506814E-3	3.193690E-3	1.076458E-3
10/19/2017  17:33:02.758023	1.452959E+0	4.528764E-3	4.613311E-3	4.749826E-3	2.482257E-3	2.849115E-3	4.341429E-3	3.377905E-3
10/19/2017  17:33:02.759023	4.383658E+0	3.593673E-3	5.797142E-3	5.829781E-3	7.938266E-4	2.295030E-3	6.209114E-4	7.061123E-3
10/19/2017  17:33:02.760023	2.198018E+0	2.781196E-3	1.084177E-4	4.177204E-3	1.198250E-2	3.974825E-3	2.131252E-3	3.562307E-3
10/19/2017  17:33:02.761023	1.640591E+0	2.235858E-3	3.556314E-4	4.930148E-3	1.084016E-3	3.619918E-3	6.216349E-3	1.895460E-3
10/19/2017  17:33:02.762023	2.481632E+0	2.899987E-3	2.705317E-3	3.442843E-3	1.773624E-2	1.883483E-3	4.583909E-3	1.369434E-2
10/19/2017  17:33:02.763023	2.576115E+0	6.474428E-3	2.382779E-5	2.016754E-2	6.745094E-3	2.858568E-3	7.585662E-3	5.949601E-3
10/19/2017  17:33:02.764023	1.453981E+0	6.369015E-3	1.970238E-3	1.116251E-3	7.198102E-3	1.804809E-3	1.273320E-3	1.728200E-3
								
10/19/2017  17:33:02.765023	1.366590E+0	2.384091E-3	5.418391E-3	2.290646E-2	1.470783E-3	3.384283E-3	1.012235E-3	5.804280E-3
10/19/2017  17:33:02.766023	5.442805E-1	6.014651E-4	1.182343E-2	1.354870E-3	3.341346E-3	2.675762E-3	3.887691E-3	2.348008E-3
10/19/2017  17:33:02.767023	4.773321E-2	9.209810E-3	4.283606E-3	1.882255E-2	2.386381E-3	2.058373E-3	1.157245E-2	2.403168E-3
10/19/2017  17:33:02.768023	1.034547E+0	2.023445E-3	7.829001E-3	4.007102E-3	2.734027E-3	6.338810E-4	2.858555E-3	5.081958E-3
10/19/2017  17:33:02.769023	7.466336E-1	5.437882E-3	1.084597E-3	8.279931E-4	2.013162E-4	1.775969E-3	6.267712E-3	1.599827E-3
10/19/2017  17:33:02.770023	6.650661E-2	8.431941E-3	1.178327E-2	7.142050E-3	2.010040E-3	9.903880E-3	2.596957E-3	9.999195E-4
10/19/2017  17:33:02.771023	1.038811E+0	5.884262E-3	3.810878E-3	2.701232E-3	7.325103E-3	1.631701E-4	2.441040E-3	1.469026E-3
10/19/2017  17:33:02.772023	1.228039E+0	2.726690E-3	2.896592E-6	1.794194E-2	1.429567E-3	1.338442E-2	4.210528E-3	3.321243E-3
10/19/2017  17:33:02.773023	5.192992E-1	1.315746E-2	2.803308E-3	3.906254E-3	9.836518E-3	7.438225E-3	6.349015E-3	2.322672E-3
10/19/2017  17:33:02.774023	3.441666E-1	6.429959E-4	4.756453E-3	2.097697E-3	8.927296E-3	5.838976E-3	9.393232E-3	9.284223E-3
10/19/2017  17:33:02.775023	4.500669E+0	1.273773E-2	3.832167E-3	6.370112E-3	3.017810E-3	6.520639E-3	2.538540E-3	8.552591E-3
10/19/2017  17:33:02.776023	4.811449E+0	1.957357E-3	1.297914E-3	9.182777E-3	7.230884E-3	8.399043E-3	2.523997E-3	1.069946E-3
10/19/2017  17:33:02.777023	2.387608E+0	4.785217E-4	5.864785E-4	2.140938E-3	5.664821E-3	5.800552E-3	1.749647E-3	8.037821E-3
10/19/2017  17:33:02.778023	8.393311E-1	8.604666E-3	8.622041E-3	9.537801E-3	4.343309E-3	1.363925E-2	9.672693E-3	6.282884E-3
10/19/2017  17:33:02.779023	1.025794E-1	1.043729E-2	6.231576E-3	2.402008E-3	1.664700E-3	5.441219E-3	2.326661E-3	8.175600E-3
10/19/2017  17:33:02.780023	9.478054E-1	1.034410E-2	2.046065E-3	2.856154E-3	5.377724E-4	1.423979E-3	9.613235E-4	8.912594E-4
10/19/2017  17:33:02.781023	6.143632E-1	1.127353E-3	5.418983E-3	1.300094E-2	4.430496E-3	1.574408E-3	7.655338E-3	4.466305E-3
10/19/2017  17:33:02.782023	8.953449E-1	7.702229E-3	6.258491E-3	1.919358E-3	9.998412E-3	8.020407E-3	7.846886E-3	3.868652E-3
10/19/2017  17:33:02.783023	2.995120E+0	2.881693E-3	2.054121E-3	3.983677E-3	3.761379E-3	5.840223E-3	9.630339E-3	7.628684E-3
10/19/2017  17:33:02.784023	5.744053E+0	7.252976E-3	7.944595E-3	7.487830E-3	4.855348E-3	2.480210E-3	4.131041E-3	7.803318E-4
10/19/2017  17:33:02.785023	1.598654E+0	7.790352E-3	1.000505E-3	7.597636E-3	7.580351E-3	4.054467E-3	1.231908E-3	3.113156E-4
10/19/2017  17:33:02.786023	5.572795E-1	3.520344E-3	1.056669E-2	1.349832E-3	1.247269E-2	2.844287E-3	3.611473E-3	2.212794E-3
10/19/2017  17:33:02.787023	2.011424E+0	8.356303E-3	1.003148E-3	5.601475E-3	4.721706E-3	6.805926E-3	1.685374E-3	9.013182E-3
10/19/2017  17:33:02.788023	3.903589E-1	2.905594E-3	1.360210E-2	1.942637E-3	5.419576E-3	1.662818E-3	3.255078E-3	2.769230E-3
10/19/2017  17:33:02.789023	1.051485E+0	2.055597E-3	3.903232E-3	7.791349E-4	4.928662E-4	1.213012E-3	4.215734E-3	6.846058E-3
10/19/2017  17:33:02.790023	1.737003E+0	3.114207E-3	3.428869E-3	7.024447E-3	4.719578E-3	8.326294E-4	6.111729E-3	8.506763E-4
10/19/2017  17:33:02.791023	1.729199E+0	1.929133E-3	5.135321E-3	6.861802E-3	9.689718E-3	3.801951E-3	4.670292E-3	2.971211E-3
10/19/2017  17:33:02.792023	9.304457E-1	3.171184E-3	1.837223E-3	4.418794E-3	8.866246E-3	6.962840E-3	3.429759E-3	6.510694E-3
10/19/2017  17:33:02.793023	1.088496E+0	1.929991E-3	9.246206E-3	8.071887E-3	8.894363E-3	2.591796E-4	4.100121E-3	2.064258E-3
10/19/2017  17:33:02.794023	7.132205E-1	9.598307E-3	1.653549E-3	2.600448E-3	2.036196E-3	6.780296E-3	1.365361E-2	8.186844E-3
10/19/2017  17:33:02.795023	5.494067E-2	4.492423E-3	3.747114E-4	6.541884E-4	9.488306E-3	5.091506E-3	8.178136E-3	3.608567E-3
10/19/2017  17:33:02.796023	8.764199E-1	2.721713E-3	1.142351E-2	5.149725E-3	2.190605E-3	1.488178E-3	1.062136E-2	6.329707E-3
10/19/2017  17:33:02.797023	4.537589E-1	7.377398E-3	1.295397E-2	1.031954E-2	7.531463E-3	9.742080E-4	1.111280E-3	8.871522E-3
								
10/19/2017  17:33:02.798023	2.722177E-1	7.892496E-3	1.669857E-3	1.578748E-3	9.299196E-4	5.431757E-4	7.963749E-3	7.013950E-3
10/19/2017  17:33:02.799023	1.063603E+0	2.864232E-3	2.954808E-3	7.958677E-3	2.634758E-3	1.276375E-2	3.349247E-3	5.224173E-3
10/19/2017  17:33:02.800023	1.225072E+0	3.984865E-3	3.942417E-3	3.573647E-3	2.775001E-3	4.150617E-3	4.460720E-3	5.993789E-4
10/19/2017  17:33:02.801023	8.046313E-1	2.592029E-4	4.407484E-3	4.576535E-3	8.576826E-3	3.264069E-3	5.580146E-3	2.593372E-3
10/19/2017  17:33:02.802023	1.962501E-2	1.111198E-2	4.185555E-3	1.406443E-3	7.484063E-3	4.110276E-3	2.505918E-3	8.206274E-3
10/19/2017  17:33:02.803023	1.474745E+0	3.700097E-3	5.952680E-3	3.510956E-3	3.601945E-3	8.462856E-3	3.909893E-3	3.284813E-3
10/19/2017  17:33:02.804023	1.779882E+0	6.134506E-3	7.025194E-3	4.876448E-3	1.580747E-2	6.367757E-3	2.582972E-3	1.146576E-2
10/19/2017  17:33:02.805023	1.660375E+0	4.306770E-3	1.043767E-3	9.492434E-3	1.077130E-2	2.410916E-3	9.293742E-3	1.748247E-3
10/19/2017  17:33:02.806023	4.843717E-1	6.193500E-4	7.597942E-3	2.203137E-3	2.079239E-2	2.724573E-3	1.565155E-4	1.180325E-2
10/19/2017  17:33:02.807023	2.493068E+0	4.249120E-3	2.625266E-3	1.270088E-2	5.435255E-3	1.997667E-3	2.180072E-3	3.727139E-3
10/19/2017  17:33:02.808023	1.736972E+0	1.054907E-3	3.306962E-3	2.198438E-4	6.828297E-3	7.673272E-4	3.508479E-3	2.316403E-3
10/19/2017  17:33:02.809023	4.073618E-1	1.663380E-3	5.339844E-3	2.339375E-3	7.562374E-3	5.577601E-4	5.419930E-5	2.307930E-3
10/19/2017  17:33:02.810023	8.758763E-1	2.919275E-3	1.363775E-4	2.040548E-4	3.430244E-3	9.005474E-3	2.669260E-3	2.064894E-3
10/19/2017  17:33:02.811023	8.326366E-3	2.564180E-3	5.729073E-3	4.146715E-3	1.876623E-3	4.680963E-4	1.994323E-3	5.731874E-3
10/19/2017  17:33:02.812023	6.438591E-1	6.410089E-3	3.329007E-3	4.583654E-3	1.299435E-3	7.319740E-3	8.950252E-4	1.329165E-2
10/19/2017  17:33:02.813023	1.044154E+0	6.722156E-3	1.840301E-2	6.185903E-3	3.493137E-3	5.478605E-3	6.468881E-3	8.663079E-4
10/19/2017  17:33:02.814023	4.766968E-1	1.066318E-2	8.994706E-3	1.372762E-2	6.767291E-3	9.038771E-3	9.364147E-3	4.931186E-4
10/19/2017  17:33:02.815023	1.198742E-1	5.449671E-3	3.924033E-4	9.916827E-3	2.044257E-3	1.042179E-2	6.227573E-3	1.983602E-3
10/19/2017  17:33:02.816023	7.475712E-1	3.597047E-3	9.355720E-3	4.104366E-3	4.019784E-3	6.393032E-3	1.022751E-4	2.774272E-3
10/19/2017  17:33:02.817023	6.942685E-2	8.721857E-3	1.851601E-3	5.405782E-3	9.723322E-4	1.396336E-2	8.991244E-3	4.323605E-4
10/19/2017  17:33:02.818023	2.638877E+0	2.098722E-3	9.946698E-4	3.689109E-4	5.560437E-3	2.780021E-3	4.191235E-3	2.757302E-3
10/19/2017  17:33:02.819023	2.920827E+0	1.544676E-3	5.604235E-3	8.822740E-3	3.472524E-3	6.063369E-3	8.115834E-3	6.456591E-3
10/19/2017  17:33:02.820023	2.513248E-1	3.257132E-3	1.410811E-3	1.514703E-3	1.556599E-2	9.147975E-3	3.679221E-3	4.118105E-3
10/19/2017  17:33:02.821023	1.032797E+0	6.373500E-3	8.218604E-3	2.611340E-3	4.801075E-3	6.750058E-3	4.627820E-3	4.297328E-3
10/19/2017  17:33:02.822023	2.172909E-1	4.360228E-3	1.050962E-2	1.406518E-2	7.497502E-3	3.933296E-3	3.554455E-3	1.238719E-2
10/19/2017  17:33:02.823023	7.913242E-1	2.664947E-3	1.265329E-3	1.705750E-3	8.576306E-4	7.962183E-3	9.307225E-3	1.747772E-3
10/19/2017  17:33:02.824023	2.168648E+0	3.058524E-3	9.688731E-3	1.378719E-3	4.669142E-3	3.177915E-3	4.388214E-3	7.513132E-3
10/19/2017  17:33:02.825023	3.706428E+0	6.293367E-4	1.711847E-4	5.398720E-3	3.655694E-3	6.946192E-3	1.546364E-3	4.917093E-4
10/19/2017  17:33:02.826023	2.489414E+0	3.229107E-3	6.731634E-3	9.421861E-3	9.521150E-3	9.651667E-3	5.790353E-3	1.543210E-2
10/19/2017  17:33:02.827023	7.956937E-1	1.657685E-2	4.943623E-3	1.318018E-2	8.991262E-3	6.093712E-3	6.450474E-3	6.783747E-3
10/19/2017  17:33:02.828023	3.427418E+0	2.388596E-3	3.044025E-3	1.103181E-4	4.873093E-4	6.345514E-3	8.471513E-3	2.377648E-3
10/19/2017  17:33:02.829023	4.575202E-1	1.173824E-2	4.334616E-3	5.065586E-3	1.815758E-2	6.755454E-3	3.714997E-3	3.363917E-3
10/19/2017  17:33:02.830023	1.549307E+0	7.234069E-3	1.431406E-3	4.313607E-3	2.396978E-3	5.125008E-3	8.530120E-5	1.341328E-2
								
10/19/2017  17:33:02.831023	1.424317E+0	8.032631E-3	5.541347E-3	3.631075E-3	2.143458E-2	3.731664E-3	4.734396E-3	7.653560E-3
10/19/2017  17:33:02.832023	9.850804E-1	3.945557E-3	2.542217E-3	5.174457E-3	2.654931E-3	3.921971E-3	6.068888E-4	3.319384E-3
10/19/2017  17:33:02.833023	9.290979E-1	3.498167E-3	2.556006E-3	4.094358E-4	6.968015E-3	7.096888E-3	4.235089E-3	4.600601E-3
10/19/2017  17:33:02.834023	1.495972E+0	6.855078E-5	3.666686E-4	4.397671E-3	7.645546E-3	1.756888E-3	5.397170E-3	1.171649E-3
10/19/2017  17:33:02.835023	1.675824E-1	8.879756E-3	1.109409E-2	5.917739E-3	7.807866E-3	5.925556E-3	8.872154E-4	1.392330E-2
10/19/2017  17:33:02.836023	1.997046E+0	1.943766E-3	1.151977E-3	6.347926E-3	3.259862E-3	2.196959E-3	3.249562E-3	1.296200E-3
10/19/2017  17:33:02.837023	9.438259E-1	1.026667E-3	1.212156E-2	2.416944E-3	4.606276E-3	1.570513E-3	5.143578E-4	3.606202E-3
10/19/2017  17:33:02.838023	1.923071E+0	5.327746E-3	2.114586E-3	1.295348E-2	1.124378E-3	3.197313E-3	7.001756E-4	2.982907E-3
10/19/2017  17:33:02.839023	1.023974E+0	6.889052E-3	1.011006E-2	4.714402E-3	5.203722E-3	8.749468E-3	8.205459E-4	2.421742E-3
10/19/2017  17:33:02.840023	9.124148E-1	2.128513E-4	8.376842E-3	8.654098E-3	1.402116E-3	6.164446E-3	7.358020E-3	2.386288E-4
10/19/2017  17:33:02.841023	3.102790E+0	1.259905E-2	6.212678E-3	6.822784E-3	2.903909E-3	1.327214E-2	3.093668E-3	2.428353E-5
10/19/2017  17:33:02.842023	2.437101E+0	9.377161E-3	2.206147E-3	7.367854E-3	9.164763E-3	1.395936E-3	1.451087E-4	2.380275E-3
10/19/2017  17:33:02.843023	5.428646E+0	3.292860E-3	3.516211E-3	3.394323E-3	2.309872E-3	3.274729E-3	3.476433E-4	6.129658E-3
10/19/2017  17:33:02.844023	5.644701E+0	1.005576E-3	2.218591E-3	6.692230E-3	9.224210E-3	1.675875E-4	1.644020E-3	1.015786E-4
10/19/2017  17:33:02.845023	2.467874E+0	3.709243E-3	6.288168E-3	2.284212E-3	6.273306E-3	1.071058E-2	7.826602E-3	2.454186E-3
10/19/2017  17:33:02.846023	1.287298E+0	1.240877E-3	4.002160E-3	3.168024E-3	1.133267E-2	7.575711E-4	5.103958E-3	4.060782E-3
10/19/2017  17:33:02.847023	1.089249E-1	1.629204E-3	2.566188E-3	2.639219E-3	6.217722E-3	2.177117E-3	3.366033E-3	3.590652E-3
10/19/2017  17:33:02.848023	1.404440E+0	4.052030E-3	5.102167E-3	2.424901E-5	6.403201E-3	8.557804E-3	2.420564E-4	6.763849E-3
10/19/2017  17:33:02.849023	2.165030E+0	3.500593E-3	1.784447E-3	6.691809E-3	4.278342E-3	4.480716E-3	7.247791E-4	2.090414E-3
10/19/2017  17:33:02.850023	1.623939E+0	2.975926E-3	1.013194E-2	3.946204E-4	9.596983E-4	7.165023E-3	9.723523E-3	1.941455E-3
10/19/2017  17:33:02.851023	1.856223E+0	3.221387E-4	1.606147E-3	1.213696E-4	1.479453E-3	2.244852E-3	6.850095E-4	1.042005E-2
10/19/2017  17:33:02.852023	2.221934E+0	5.666054E-4	1.370271E-3	2.286679E-3	5.336404E-3	5.788714E-3	2.787473E-3	3.109696E-3
10/19/2017  17:33:02.853023	1.331553E+0	2.883827E-3	3.161249E-3	2.521860E-3	1.161365E-2	4.897200E-3	2.296997E-3	2.311053E-3
10/19/2017  17:33:02.854023	1.047052E+0	8.736835E-3	2.385177E-3	2.818858E-3	1.462417E-2	1.270939E-2	2.779800E-3	1.808425E-3
10/19/2017  17:33:02.855023	2.737262E+0	4.277981E-4	2.341222E-3	1.016464E-4	1.207067E-2	2.646823E-3	1.991712E-3	1.373231E-3
10/19/2017  17:33:02.856023	2.887121E+0	2.736848E-3	8.719028E-4	1.045621E-2	1.349900E-2	2.588944E-3	7.308734E-3	1.000002E-3
10/19/2017  17:33:02.857023	7.434236E-1	3.773648E-7	1.181740E-2	8.867370E-3	5.545780E-3	4.522473E-3	7.232129E-4	6.834458E-4
10/19/2017  17:33:02.858023	3.534097E+0	4.087826E-3	2.433930E-3	5.760102E-3	3.854930E-3	2.921747E-3	2.404089E-3	4.184588E-4
10/19/2017  17:33:02.859023	3.306690E+0	2.474579E-3	3.612598E-4	2.047419E-2	1.889444E-3	3.737541E-3	8.367033E-4	6.675486E-3
10/19/2017  17:33:02.860023	2.242416E+0	3.186844E-3	4.506153E-3	1.075970E-2	8.130043E-3	2.396555E-3	9.633837E-3	8.577247E-3
10/19/2017  17:33:02.861023	2.784811E-1	7.187817E-3	7.855631E-3	2.048331E-2	5.765541E-3	4.624993E-3	1.121647E-2	1.917732E-3
10/19/2017  17:33:02.862023	2.232754E-1	1.156188E-3	3.025968E-3	3.125143E-3	9.207321E-3	8.244378E-3	5.460133E-3	5.667640E-3
10/19/2017  17:33:02.863023	1.689961E-1	3.271180E-3	4.236634E-3	5.275638E-3	4.436740E-3	2.436632E-3	1.727058E-2	5.458619E-4
								
10/19/2017  17:33:02.864023	2.041443E+0	4.670232E-3	1.137001E-2	4.680070E-3	5.703858E-3	9.444061E-3	5.219238E-3	5.025703E-3
10/19/2017  17:33:02.865023	8.692502E-1	7.477608E-3	1.430894E-2	1.273636E-2	6.260897E-3	4.004779E-3	1.687479E-2	3.723910E-3
10/19/2017  17:33:02.866023	7.079391E-1	3.562160E-3	2.139548E-2	5.012202E-3	2.297276E-3	4.863848E-3	7.279230E-4	3.857537E-3
10/19/2017  17:33:02.867023	8.073944E-1	4.896707E-3	2.582935E-3	7.973600E-4	2.740107E-4	5.558411E-3	1.100063E-2	2.660494E-3
10/19/2017  17:33:02.868023	5.986927E-1	2.993522E-3	3.582338E-4	4.973462E-3	4.402356E-3	6.596312E-3	6.044485E-3	4.993001E-4
10/19/2017  17:33:02.869023	1.923364E+0	8.533197E-3	5.283015E-3	3.029281E-3	3.235054E-3	4.409877E-3	2.101405E-3	7.091185E-3
10/19/2017  17:33:02.870023	1.178419E+0	3.008276E-3	2.161680E-3	6.496385E-6	2.247204E-3	1.216360E-2	2.925169E-3	7.259250E-4
10/19/2017  17:33:02.871023	9.815993E-1	1.122150E-2	4.463651E-3	5.755035E-5	1.780579E-3	2.243248E-3	4.373725E-3	4.167114E-4
10/19/2017  17:33:02.872023	1.246465E+0	3.680650E-3	3.975888E-3	2.279704E-3	1.371465E-3	4.122765E-4	3.526096E-3	4.155444E-3
10/19/2017  17:33:02.873023	7.741255E-1	1.273065E-2	7.759457E-3	1.639326E-3	9.669976E-3	2.036486E-3	4.746256E-3	1.371889E-3
10/19/2017  17:33:02.874023	4.114225E-1	4.537887E-3	5.833280E-3	9.679984E-3	2.195436E-3	3.728347E-3	1.083189E-3	9.605242E-3
10/19/2017  17:33:02.875023	1.477943E-1	5.539264E-4	2.304532E-3	2.226262E-3	9.828408E-3	6.944518E-3	8.098540E-3	6.517609E-3
10/19/2017  17:33:02.876023	2.546483E-2	1.102190E-2	3.751488E-3	5.468488E-3	9.415456E-3	1.863999E-3	3.556238E-3	4.907328E-3
10/19/2017  17:33:02.877023	2.509978E-2	5.925970E-3	8.335569E-3	1.081947E-2	2.622855E-5	1.030250E-2	6.368255E-3	7.858264E-4
10/19/2017  17:33:02.878023	4.781681E-1	1.837841E-4	8.004615E-3	5.237405E-3	4.597857E-3	5.109431E-3	2.445394E-3	5.321035E-4
10/19/2017  17:33:02.879023	4.252507E-1	4.598494E-3	3.448453E-3	3.577939E-3	5.570175E-3	7.535482E-3	3.817465E-3	2.481349E-3
10/19/2017  17:33:02.880023	5.588829E-1	5.422661E-3	1.159781E-2	6.460022E-3	4.807471E-3	7.692925E-3	6.179364E-3	1.603334E-3
10/19/2017  17:33:02.881023	3.802354E-2	1.444216E-3	3.126006E-4	2.622907E-3	1.245769E-3	3.337853E-3	1.640521E-4	9.913073E-3
10/19/2017  17:33:02.882023	1.243946E+0	1.507664E-3	6.705403E-3	8.395274E-3	7.805186E-4	2.499694E-3	2.012671E-3	1.677030E-3
10/19/2017  17:33:02.883023	1.258582E+0	1.427075E-3	4.497132E-3	5.125423E-3	6.093433E-3	1.776547E-3	8.359903E-4	9.962265E-3
10/19/2017  17:33:02.884023	2.777319E-1	3.477852E-3	3.828200E-3	9.119863E-3	5.453983E-5	9.633166E-3	2.859569E-3	1.805061E-3
10/19/2017  17:33:02.885023	1.741282E+0	4.829231E-4	5.381092E-3	1.131325E-2	8.817744E-3	4.182265E-3	4.188423E-3	2.731564E-3
10/19/2017  17:33:02.886023	3.836236E+0	4.775839E-3	4.128225E-3	3.934701E-4	4.302856E-4	1.179190E-2	6.251470E-4	7.107323E-3
10/19/2017  17:33:02.887023	3.598615E+0	3.161379E-3	5.211977E-3	1.063881E-2	6.037459E-4	5.605984E-4	8.465477E-3	7.408717E-3
10/19/2017  17:33:02.888023	1.382666E+0	4.434850E-3	2.890319E-3	1.370933E-3	5.053088E-3	5.158235E-3	6.947425E-3	7.835793E-3
10/19/2017  17:33:02.889023	2.005122E+0	8.367140E-4	4.282290E-3	1.357706E-3	2.780288E-3	3.951301E-3	1.698130E-3	3.353504E-3
10/19/2017  17:33:02.890023	4.298755E+0	1.797929E-3	3.554953E-3	3.486136E-3	3.956069E-3	7.606043E-4	3.545121E-3	4.356753E-3
10/19/2017  17:33:02.891023	3.251026E-1	1.457421E-3	9.039916E-3	2.729159E-3	6.760187E-3	1.563144E-3	3.913418E-3	7.559587E-3
10/19/2017  17:33:02.892023	6.366161E-1	1.141648E-3	9.044330E-3	8.557394E-3	8.889538E-3	3.154036E-3	8.163412E-3	3.448503E-3
10/19/2017  17:33:02.893023	2.042575E-1	1.306512E-3	1.519316E-2	7.087751E-3	4.004735E-3	8.450334E-3	1.376095E-3	4.490143E-4
10/19/2017  17:33:02.894023	5.448971E-1	3.019328E-3	4.862600E-3	7.551462E-4	8.569748E-3	3.282632E-3	7.163899E-4	4.463591E-4
10/19/2017  17:33:02.895023	9.374224E-1	4.518529E-3	1.049384E-2	4.756675E-4	5.113004E-5	1.811606E-2	1.770866E-4	4.417976E-4
10/19/2017  17:33:02.896023	6.294069E-1	3.257587E-3	1.130642E-3	2.403773E-3	4.573108E-3	4.398580E-3	2.411916E-3	4.349656E-4
								
10/19/2017  17:33:02.897023	1.841635E-1	2.177383E-3	3.506043E-3	1.505658E-3	5.528652E-3	1.178567E-2	2.276153E-3	6.900988E-3
10/19/2017  17:33:02.898023	3.057077E-1	1.205532E-2	4.115854E-3	5.085224E-3	3.775846E-3	1.151896E-2	9.588323E-4	2.604936E-3
10/19/2017  17:33:02.899023	3.690363E-1	8.828422E-4	3.543789E-3	7.733022E-3	1.311462E-4	2.429815E-3	3.280744E-3	1.142159E-2
10/19/2017  17:33:02.900023	3.275752E-1	5.938764E-3	1.900277E-3	1.232206E-2	4.719578E-3	2.751532E-3	1.130340E-2	3.730371E-3
10/19/2017  17:33:02.901023	7.268348E-2	3.556461E-3	2.904721E-3	2.091517E-3	7.100159E-3	2.277761E-3	2.861318E-3	4.466329E-3
10/19/2017  17:33:02.902023	1.162055E-1	2.807817E-3	1.908194E-3	5.410653E-3	8.734830E-3	7.156752E-3	8.634609E-3	1.036921E-2
10/19/2017  17:33:02.903023	6.654728E-1	7.352166E-3	7.548993E-3	4.118600E-3	5.730722E-3	7.132617E-3	2.710845E-3	1.197963E-2
10/19/2017  17:33:02.904023	5.356305E-2	6.041498E-3	3.214576E-3	1.304603E-3	9.498277E-3	1.891591E-3	6.454212E-3	6.104825E-3
10/19/2017  17:33:02.905023	5.925610E-1	2.706535E-3	2.235919E-3	7.822821E-3	3.197958E-3	1.051948E-2	1.940165E-3	1.140583E-2
10/19/2017  17:33:02.906023	1.660148E+0	4.109680E-3	1.764553E-3	1.070655E-3	3.595910E-3	1.172770E-3	5.752343E-3	1.273681E-2
10/19/2017  17:33:02.907023	3.231063E+0	8.468103E-3	5.682208E-3	8.182944E-3	3.873932E-4	5.599991E-3	3.984864E-4	8.486086E-3
10/19/2017  17:33:02.908023	2.664456E+0	8.520083E-3	4.712471E-3	4.964125E-3	9.791885E-3	1.564208E-3	4.820926E-3	3.970800E-3
10/19/2017  17:33:02.909023	1.330927E+0	4.863584E-4	7.659040E-3	5.241287E-3	7.501452E-3	7.926090E-3	1.425737E-2	3.784349E-3
10/19/2017  17:33:02.910023	3.931364E+0	5.119098E-4	1.398418E-3	2.773075E-3	9.775736E-4	2.848903E-3	1.221842E-3	4.882744E-3
10/19/2017  17:33:02.911023	2.705625E+0	7.021725E-3	3.580613E-3	2.196406E-4	3.770542E-3	6.807389E-3	1.022547E-2	3.197724E-3
10/19/2017  17:33:02.912023	8.850417E-4	2.777672E-3	1.150160E-2	4.116524E-3	1.656908E-3	3.815625E-3	5.501145E-3	2.518819E-4
10/19/2017  17:33:02.913023	7.368351E-1	9.033573E-3	1.562348E-3	2.720414E-3	1.185755E-3	4.813208E-3	1.107995E-2	8.922364E-3
10/19/2017  17:33:02.914023	1.600041E+0	1.992893E-3	1.216967E-2	4.914153E-3	1.351105E-3	3.342252E-3	1.256860E-3	4.681255E-3
10/19/2017  17:33:02.915023	4.595896E-2	3.261209E-3	2.254624E-3	1.564386E-3	3.092977E-3	4.765545E-3	5.820296E-3	5.645882E-3
10/19/2017  17:33:02.916023	7.405289E-1	2.511887E-3	4.034856E-4	7.727828E-3	4.170793E-3	3.417934E-3	8.879539E-3	4.713496E-3
10/19/2017  17:33:02.917023	1.063980E+0	2.302098E-3	1.239400E-4	3.154910E-3	1.788246E-3	1.188671E-4	1.042125E-4	3.325560E-3
10/19/2017  17:33:02.918023	1.478353E+0	5.435644E-5	2.259399E-3	8.962786E-3	8.220751E-3	6.600984E-3	1.044393E-4	1.671699E-6
10/19/2017  17:33:02.919023	1.046713E+0	1.125844E-2	2.594515E-3	2.301057E-5	1.697880E-3	3.519713E-4	2.268142E-3	2.413068E-3
10/19/2017  17:33:02.920023	3.983261E+0	3.810618E-3	1.636827E-3	1.720421E-2	7.381769E-3	4.464923E-3	5.872288E-4	4.058016E-3
10/19/2017  17:33:02.921023	9.072017E-1	6.041910E-3	7.789824E-3	6.848778E-4	8.091610E-3	7.905949E-3	2.612731E-3	7.217854E-3
10/19/2017  17:33:02.922023	5.750127E+0	4.218033E-3	3.431610E-3	1.349164E-2	5.913427E-3	1.349402E-3	3.940075E-3	1.244517E-2
10/19/2017  17:33:02.923023	2.723185E+0	2.682245E-3	2.037306E-3	1.666533E-2	1.106591E-2	5.601695E-3	3.730399E-4	6.614413E-3
10/19/2017  17:33:02.924023	1.966102E+0	2.909127E-3	8.058798E-3	1.253868E-3	5.455792E-3	2.600855E-3	1.088016E-2	4.393710E-3
10/19/2017  17:33:02.925023	1.037064E+0	1.116475E-2	3.382139E-3	1.196910E-2	1.111406E-3	4.074506E-3	5.552292E-3	9.996293E-3
10/19/2017  17:33:02.926023	1.616056E+0	3.662214E-3	8.807338E-3	3.029048E-4	1.079382E-2	2.779785E-3	9.346534E-3	7.102381E-3
10/19/2017  17:33:02.927023	2.169700E-1	2.352384E-4	4.239142E-3	4.824535E-3	1.026816E-2	4.645828E-4	6.710267E-3	6.130736E-3
10/19/2017  17:33:02.928023	1.147509E+0	6.585547E-3	7.450579E-4	7.868309E-3	3.555155E-3	9.287144E-3	1.991700E-3	4.618815E-3
10/19/2017  17:33:02.929023	2.293874E+0	1.743434E-3	3.986897E-3	1.039305E-3	4.696494E-3	2.043679E-3	8.199961E-3	9.860215E-4
								
10/19/2017  17:33:02.930023	1.331331E-1	3.135845E-3	5.730109E-3	3.964468E-3	1.198698E-3	4.998976E-3	2.796559E-3	4.970750E-3
10/19/2017  17:33:02.931023	2.441532E+0	3.005873E-5	2.676068E-3	3.099750E-3	3.248195E-3	1.195001E-3	2.054682E-4	3.199753E-3
10/19/2017  17:33:02.932023	3.071953E+0	4.261826E-3	4.322695E-3	2.356079E-3	6.704439E-3	5.351062E-4	2.077289E-4	6.799881E-3
10/19/2017  17:33:02.933023	2.437103E+0	7.096765E-3	3.829436E-3	2.597803E-3	2.759960E-3	5.362101E-6	2.364907E-3	4.474840E-4
10/19/2017  17:33:02.934023	2.032309E+0	4.180549E-3	7.400470E-3	1.467438E-2	4.538532E-3	9.042987E-3	3.811262E-3	2.002324E-3
10/19/2017  17:33:02.935023	9.906028E-1	5.682382E-3	5.326294E-3	1.623835E-2	3.095378E-3	4.362882E-3	1.807243E-3	5.844322E-3
10/19/2017  17:33:02.936023	4.928716E-1	6.532629E-3	7.223597E-3	3.234459E-3	6.754962E-3	2.935627E-3	1.225898E-2	2.455649E-3
10/19/2017  17:33:02.937023	5.351215E-1	6.102243E-3	9.459011E-3	4.107953E-3	5.616734E-4	4.188123E-4	2.117613E-4	6.172766E-3
10/19/2017  17:33:02.938023	4.114529E-2	1.965702E-3	4.508968E-3	5.549482E-4	3.946395E-4	9.331062E-3	8.039139E-3	2.232821E-3
10/19/2017  17:33:02.939023	2.969059E-1	3.280729E-3	1.007697E-2	2.048890E-3	8.410868E-3	2.388567E-3	8.027356E-3	1.721367E-3
10/19/2017  17:33:02.940023	1.025530E-1	4.765982E-3	1.486992E-3	1.032758E-2	2.948949E-3	7.040636E-3	2.028607E-3	5.598031E-3
10/19/2017  17:33:02.941023	2.158992E-1	1.299060E-3	1.117794E-3	5.797593E-3	8.844412E-3	9.182786E-3	6.291413E-3	4.828057E-3
10/19/2017  17:33:02.942023	3.855488E-1	7.362276E-3	8.078423E-4	4.199832E-3	4.018330E-3	2.690398E-3	1.689559E-3	8.271734E-4
10/19/2017  17:33:02.943023	7.497182E-1	5.616769E-4	1.608580E-3	6.957769E-4	1.843939E-3	2.412478E-2	3.447825E-3	5.407821E-4
10/19/2017  17:33:02.944023	2.206843E-1	4.218014E-3	5.428361E-3	4.030643E-3	1.251726E-2	2.562626E-3	7.001737E-3	4.013051E-3
10/19/2017  17:33:02.945023	1.276248E+0	2.046329E-3	3.588068E-3	9.412833E-3	2.334720E-3	1.307122E-2	2.756227E-3	1.528397E-3
10/19/2017  17:33:02.946023	2.328596E+0	1.504402E-2	6.583114E-3	6.611727E-3	1.593655E-2	2.783097E-3	2.617088E-3	3.296608E-3
10/19/2017  17:33:02.947023	1.853185E+0	7.988237E-3	2.844214E-3	3.723305E-3	2.176271E-4	4.542960E-4	4.242733E-3	9.829387E-5
10/19/2017  17:33:02.948023	1.360216E+0	1.566236E-3	2.200732E-3	2.323296E-3	3.424871E-4	9.265779E-3	9.246713E-4	6.536377E-3
10/19/2017  17:33:02.949023	1.151272E+0	1.333428E-2	5.144642E-4	9.635828E-3	9.438245E-3	2.079007E-3	7.968028E-3	1.941460E-3
10/19/2017  17:33:02.950023	1.848435E+0	8.441932E-3	2.808845E-4	5.512533E-4	1.037548E-2	6.308499E-4	3.188218E-3	1.494222E-3
10/19/2017  17:33:02.951023	6.427638E-1	4.588476E-3	6.571452E-3	1.248685E-2	4.001186E-3	1.772646E-3	2.611463E-3	7.585923E-3
10/19/2017  17:33:02.952023	4.342310E-1	5.948744E-3	8.660219E-3	2.496578E-3	9.894150E-3	1.269385E-3	6.725445E-3	7.816238E-3
10/19/2017  17:33:02.953023	1.796066E-1	1.097631E-2	6.289596E-3	8.907343E-3	7.255502E-4	3.468319E-3	3.526944E-3	8.672273E-4
10/19/2017  17:33:02.954023	4.475740E-1	7.581981E-3	6.517830E-3	8.828924E-3	7.074552E-3	6.714781E-3	4.238217E-3	1.139742E-2
10/19/2017  17:33:02.955023	7.762006E-1	6.080972E-3	6.815218E-3	1.883551E-3	4.813171E-3	1.286986E-2	4.501871E-3	3.319924E-3
10/19/2017  17:33:02.956023	7.067017E-1	1.140843E-2	8.415056E-3	5.391021E-3	3.571154E-3	6.967386E-3	1.069397E-2	2.707818E-3
10/19/2017  17:33:02.957023	3.339768E+0	2.494549E-3	8.206904E-3	1.983963E-2	9.493014E-3	2.370000E-3	8.261966E-3	4.828776E-3
10/19/2017  17:33:02.958023	3.178145E-1	2.755337E-3	7.462284E-3	1.048613E-2	2.525395E-3	5.416195E-3	3.998768E-3	8.342438E-3
10/19/2017  17:33:02.959023	8.076825E-1	6.505041E-3	5.471551E-3	4.857895E-4	6.936820E-3	8.660418E-3	2.900983E-3	8.352665E-3
10/19/2017  17:33:02.960023	8.150867E-1	2.283260E-3	3.788149E-3	1.820936E-3	4.769108E-3	1.780196E-4	6.671940E-3	4.989174E-3
10/19/2017  17:33:02.961023	8.490497E-1	2.089566E-3	1.936624E-3	8.171116E-3	5.698438E-3	4.376664E-3	1.326927E-2	3.596504E-3
10/19/2017  17:33:02.962023	1.778762E+0	6.726854E-3	1.128241E-2	4.246293E-3	2.431309E-5	1.443152E-3	6.355950E-3	1.882251E-3
								
10/19/2017  17:33:02.963023	3.845837E+0	2.409137E-3	9.999867E-3	9.024032E-4	4.614463E-3	3.422297E-3	9.453064E-3	1.420472E-3
10/19/2017  17:33:02.964023	2.482735E+0	3.996601E-3	1.195685E-2	4.098379E-3	7.425615E-3	9.010537E-3	4.790344E-3	1.012214E-3
10/19/2017  17:33:02.965023	2.251342E+0	2.452366E-3	1.359533E-4	3.208931E-3	3.738793E-3	2.514424E-3	1.195937E-3	1.503530E-3
10/19/2017  17:33:02.966023	5.180860E+0	9.232929E-3	2.194996E-4	4.584103E-3	9.469082E-3	4.372847E-3	6.782457E-4	7.579365E-3
10/19/2017  17:33:02.967023	4.905804E+0	1.160136E-2	6.186258E-3	1.193276E-2	2.341146E-3	3.867933E-3	4.550519E-3	3.506431E-3
10/19/2017  17:33:02.968023	3.748587E+0	2.310285E-3	4.640677E-3	3.834277E-3	7.618272E-4	9.673564E-3	6.032717E-4	9.179565E-3
10/19/2017  17:33:02.969023	2.136190E+0	5.051719E-3	1.467413E-3	4.707109E-5	1.333764E-3	8.153811E-3	6.649012E-3	4.191896E-3
10/19/2017  17:33:02.970023	7.441026E-2	6.751741E-4	7.785183E-3	1.436127E-3	8.072342E-3	5.308485E-3	5.149403E-3	8.272776E-3
10/19/2017  17:33:02.971023	2.913270E+0	1.680293E-2	3.128854E-3	2.280723E-4	3.677555E-3	6.149443E-3	2.605833E-3	6.114956E-3
10/19/2017  17:33:02.972023	3.686852E+0	1.655254E-3	4.361681E-3	9.347879E-3	6.149229E-3	4.316248E-3	1.567135E-3	2.132556E-3
10/19/2017  17:33:02.973023	4.187422E+0	8.481677E-3	5.029960E-3	1.152877E-2	4.369309E-3	1.540229E-3	1.450219E-3	5.635066E-3
10/19/2017  17:33:02.974023	1.749265E+0	8.761088E-3	9.199893E-4	2.561157E-3	3.092915E-3	5.714688E-3	7.173359E-4	9.395767E-3
10/19/2017  17:33:02.975023	6.654030E-1	6.437536E-3	1.077552E-2	2.502652E-3	2.021480E-3	1.623457E-4	4.360388E-3	2.536300E-3
10/19/2017  17:33:02.976023	8.528101E-1	2.002456E-3	5.779615E-3	1.248031E-2	1.028887E-3	2.092087E-3	1.902683E-3	1.791156E-3
10/19/2017  17:33:02.977023	1.325909E+0	3.675983E-3	2.415342E-4	8.220208E-3	1.123530E-3	5.016821E-3	2.243310E-3	3.313363E-3
10/19/2017  17:33:02.978023	2.943508E+0	3.887513E-4	1.105625E-2	8.304932E-3	8.223739E-3	3.423911E-3	1.413813E-3	8.978895E-5
10/19/2017  17:33:02.979023	2.138783E+0	8.486841E-3	3.205291E-3	2.664972E-3	5.571374E-4	1.301379E-2	4.052122E-3	4.732724E-3
10/19/2017  17:33:02.980023	3.980722E+0	5.851831E-3	1.559574E-2	7.229840E-3	2.530216E-3	4.826959E-3	1.229879E-2	7.464316E-4
10/19/2017  17:33:02.981023	1.686980E+0	1.145637E-2	6.837584E-3	4.847325E-3	1.668636E-3	9.959043E-3	9.066150E-3	1.840378E-3
10/19/2017  17:33:02.982023	3.544615E-2	6.146243E-3	8.451595E-3	2.706211E-4	9.857814E-3	1.153895E-2	6.645382E-3	5.796602E-3
10/19/2017  17:33:02.983023	8.859004E-1	1.334027E-4	3.983776E-3	5.299662E-3	4.715369E-3	5.142363E-3	4.735572E-3	2.410277E-3
10/19/2017  17:33:02.984023	1.585081E+0	6.837195E-3	1.571258E-3	4.841748E-3	1.406629E-3	1.263460E-2	5.480595E-3	3.895277E-3
10/19/2017  17:33:02.985023	1.542805E-1	1.136593E-2	3.339833E-3	6.526078E-3	7.962190E-3	1.780047E-4	6.101577E-3	4.591622E-4
10/19/2017  17:33:02.986023	1.053605E+0	5.344948E-3	2.289990E-3	3.308751E-3	3.692181E-3	2.353460E-3	4.556169E-3	6.371963E-3
10/19/2017  17:33:02.987023	1.615804E+0	4.218013E-3	1.405448E-3	5.869863E-3	1.252732E-2	1.937050E-3	1.274183E-3	2.370079E-3
10/19/2017  17:33:02.988023	1.217697E-1	1.073237E-3	7.967311E-3	5.585228E-3	1.961645E-4	3.726114E-3	3.200047E-3	4.949688E-3
10/19/2017  17:33:02.989023	2.357600E+0	5.549427E-3	7.476704E-4	1.364646E-2	7.237892E-3	5.332226E-4	2.009467E-3	1.000009E-2
10/19/2017  17:33:02.990023	7.842783E-1	1.411155E-3	5.039210E-4	5.891876E-3	5.524337E-3	3.664645E-4	9.960234E-3	1.957486E-3
10/19/2017  17:33:02.991023	1.098321E+0	5.983606E-3	2.974412E-4	2.183987E-3	2.440831E-3	2.383607E-3	7.264705E-5	1.052019E-2
10/19/2017  17:33:02.992023	1.017897E+0	8.899057E-3	1.250924E-4	4.941255E-3	1.566183E-3	1.556736E-3	6.523287E-4	1.048331E-3
10/19/2017  17:33:02.993023	2.303360E+0	1.948002E-3	6.494806E-3	1.172521E-2	8.495622E-4	9.923200E-3	7.695659E-3	9.331638E-3
10/19/2017  17:33:02.994023	2.245062E+0	1.612887E-2	1.621371E-4	1.449432E-2	2.437393E-3	4.667757E-4	3.845818E-3	2.625786E-4
10/19/2017  17:33:02.995023	1.130645E-1	6.129473E-3	4.421952E-3	3.732028E-3	9.541685E-3	9.256144E-5	5.535132E-3	5.039935E-3
								
10/19/2017  17:33:02.996023	2.232105E+0	6.782855E-3	1.110195E-3	1.898589E-2	6.923263E-3	6.679329E-3	3.113999E-3	3.555917E-4
10/19/2017  17:33:02.997023	2.177506E+0	1.700721E-3	7.199522E-3	1.113616E-3	6.120874E-3	4.640268E-4	4.934858E-3	1.141625E-4
10/19/2017  17:33:02.998023	1.545912E+0	7.751129E-3	6.044403E-3	5.264182E-3	1.121857E-4	4.038821E-3	3.897683E-3	4.689473E-4
10/19/2017  17:33:02.999023	4.747559E-1	3.356846E-3	2.368373E-3	1.205905E-2	1.227595E-4	6.189561E-4	1.325880E-3	2.882310E-3
10/19/2017  17:33:03.000023	5.790787E-1	4.733142E-3	8.257772E-3	2.746787E-4	6.351198E-3	6.199440E-3	5.013899E-3	2.342807E-3
10/19/2017  17:33:03.001023	2.756432E-1	5.497444E-3	9.494442E-3	4.532134E-4	8.781718E-3	6.505117E-3	5.532633E-3	6.165899E-3
10/19/2017  17:33:03.002023	6.391193E-1	1.150474E-2	2.586279E-4	5.949018E-4	1.990231E-3	8.713291E-3	6.423537E-3	4.300598E-3
10/19/2017  17:33:03.003023	3.624873E+0	3.811978E-3	2.088794E-3	1.798344E-2	5.151012E-3	6.344771E-3	1.861799E-3	8.074578E-3
10/19/2017  17:33:03.004023	1.333348E+0	1.054736E-2	3.684576E-3	1.586052E-3	3.554474E-3	6.450234E-3	3.438311E-3	8.015558E-3
10/19/2017  17:33:03.005023	1.428567E+0	5.289786E-3	3.985223E-3	1.034466E-2	6.442992E-3	6.737305E-3	4.213218E-3	9.660366E-3
10/19/2017  17:33:03.006023	1.090350E+0	1.223987E-3	5.015860E-3	3.374152E-3	4.715710E-3	1.065698E-2	5.208760E-3	6.124340E-3
10/19/2017  17:33:03.007023	1.117967E+0	8.288830E-3	1.175749E-2	6.848960E-3	7.560645E-3	5.437646E-3	1.160076E-2	4.270863E-3
10/19/2017  17:33:03.008023	1.240706E-2	2.469541E-3	8.169939E-3	1.779827E-3	3.061984E-3	1.154047E-2	1.607171E-3	5.901098E-3
10/19/2017  17:33:03.009023	4.574630E+0	5.754895E-3	3.477657E-3	1.456843E-3	4.676662E-3	5.972316E-3	5.676226E-3	6.481872E-3
10/19/2017  17:33:03.010023	1.003810E+0	5.143781E-3	9.700683E-4	9.817803E-4	5.735960E-3	6.976672E-3	4.192399E-3	2.055268E-3
10/19/2017  17:33:03.011023	5.989475E-1	4.172747E-3	5.656361E-3	5.115906E-4	6.738483E-3	5.217248E-3	2.915403E-3	8.141988E-3
10/19/2017  17:33:03.012023	1.645159E+0	1.157321E-3	8.815247E-3	2.285119E-3	6.745086E-3	9.234807E-3	6.801677E-3	7.868582E-4
10/19/2017  17:33:03.013023	1.099074E+0	1.044015E-3	9.921245E-5	3.055187E-3	6.582229E-3	1.932477E-3	1.591675E-3	9.339246E-3
10/19/2017  17:33:03.014023	1.553838E+0	1.758823E-3	2.120319E-3	4.630457E-3	1.159030E-2	1.856302E-2	7.544621E-3	4.379424E-3
10/19/2017  17:33:03.015023	4.177607E+0	1.235116E-2	7.187764E-3	3.406565E-3	4.779327E-4	2.250707E-3	1.499840E-3	5.453659E-3
10/19/2017  17:33:03.016023	3.077841E+0	6.500827E-3	2.761328E-3	4.526033E-3	4.838658E-3	1.004853E-3	5.838265E-3	3.830335E-3
10/19/2017  17:33:03.017023	3.228771E+0	6.847787E-3	2.733408E-3	2.942277E-3	3.050897E-3	7.667357E-3	1.027731E-4	1.839422E-3
10/19/2017  17:33:03.018023	4.436585E+0	3.035273E-4	4.426549E-3	7.013586E-3	4.255500E-3	8.086717E-4	6.160523E-3	3.691564E-3
10/19/2017  17:33:03.019023	2.656744E+0	1.252412E-4	1.130062E-3	5.251469E-3	8.079226E-3	6.856862E-3	4.442346E-4	8.093720E-3
10/19/2017  17:33:03.020023	1.050689E+0	2.607749E-3	8.588250E-4	3.748985E-3	7.025214E-4	2.089634E-3	9.211738E-4	5.389747E-3
10/19/2017  17:33:03.021023	4.485164E+0	4.290696E-3	1.546319E-3	8.318068E-3	4.993997E-4	6.322923E-3	1.279254E-3	1.055061E-2
10/19/2017  17:33:03.022023	3.117128E+0	5.305347E-3	3.261580E-3	1.505093E-3	2.488622E-3	5.999280E-3	1.532633E-3	3.502892E-3
10/19/2017  17:33:03.023023	1.762592E+0	5.770058E-3	2.080051E-3	8.319272E-4	9.187306E-3	1.613074E-3	3.852283E-3	7.017481E-3
10/19/2017  17:33:03.024023	7.311311E+0	5.001010E-3	4.949046E-3	6.197250E-3	4.187480E-3	1.030161E-2	1.069749E-3	5.872439E-3
10/19/2017  17:33:03.025023	1.718935E+0	3.945227E-3	3.201400E-3	6.667980E-3	6.127381E-3	1.169202E-3	5.519869E-3	1.271479E-2
10/19/2017  17:33:03.026023	5.594741E+0	3.039775E-3	3.154630E-4	1.316793E-2	4.647028E-3	3.181307E-3	6.617640E-3	2.420715E-3
10/19/2017  17:33:03.027023	2.283138E+0	2.046583E-3	4.082231E-4	1.305775E-2	9.528307E-4	6.312548E-3	2.226875E-3	1.112436E-2
10/19/2017  17:33:03.028023	8.880992E-1	8.815443E-4	4.811912E-4	1.843904E-2	1.548363E-3	2.254814E-3	2.046950E-3	1.820015E-3
								
10/19/2017  17:33:03.029023	2.106317E+0	2.973415E-3	1.133343E-2	1.065872E-2	3.216311E-3	6.172004E-3	8.314908E-3	4.939398E-3
10/19/2017  17:33:03.030023	2.464863E+0	8.676388E-3	7.290399E-3	1.744429E-4	8.143313E-6	2.225639E-3	1.652875E-3	1.243573E-3
10/19/2017  17:33:03.031023	3.904334E+0	5.755566E-4	1.389536E-2	5.322870E-3	2.308850E-3	3.572191E-3	3.247289E-3	1.360082E-3
10/19/2017  17:33:03.032023	3.912272E+0	9.395761E-3	3.619601E-3	1.561134E-2	3.872844E-3	6.457025E-3	1.797545E-4	5.733135E-3
10/19/2017  17:33:03.033023	4.643659E+0	4.528640E-3	1.828347E-2	1.587279E-2	4.817308E-4	2.625929E-3	6.331202E-3	2.154473E-3
10/19/2017  17:33:03.034023	2.098000E+0	1.215820E-2	2.100596E-3	2.354188E-3	6.331483E-3	8.867465E-3	4.218731E-3	3.405147E-3
10/19/2017  17:33:03.035023	2.894425E+0	2.037664E-3	1.120474E-3	9.705855E-3	2.302005E-3	1.022455E-2	6.188481E-3	1.966391E-3
10/19/2017  17:33:03.036023	4.637889E+0	7.523328E-3	1.047449E-2	1.150811E-2	1.369429E-2	4.456826E-3	4.827416E-3	3.513514E-3
10/19/2017  17:33:03.037023	1.374432E+0	5.439280E-3	1.073890E-3	7.163457E-3	7.650019E-4	2.355154E-2	1.507710E-3	5.173240E-3
10/19/2017  17:33:03.038023	7.424345E-1	4.961201E-3	2.858761E-3	8.443067E-4	1.079231E-2	4.410532E-4	1.233186E-3	1.829343E-3
10/19/2017  17:33:03.039023	2.140039E+0	3.605987E-3	6.795264E-3	5.678924E-4	8.247458E-4	1.554867E-2	5.471767E-3	6.621493E-4
10/19/2017  17:33:03.040023	1.520512E+0	8.326946E-3	6.956246E-3	2.490551E-3	1.130447E-2	2.371002E-3	5.088291E-3	2.705614E-4
10/19/2017  17:33:03.041023	3.111624E+0	3.574064E-3	2.446977E-4	8.060595E-3	9.843609E-4	4.421750E-3	4.536760E-4	8.655148E-3
10/19/2017  17:33:03.042023	1.687563E+0	4.266862E-3	3.261992E-4	7.785632E-3	8.720253E-3	3.574800E-3	2.076115E-3	2.606392E-3
10/19/2017  17:33:03.043023	9.108716E-1	4.121517E-3	5.090269E-3	8.082937E-3	6.703680E-3	2.822363E-3	6.962733E-3	1.997802E-3
10/19/2017  17:33:03.044023	3.863826E-1	5.714903E-3	2.472646E-3	5.779537E-3	8.018460E-3	4.317047E-3	1.695670E-4	1.497470E-3
10/19/2017  17:33:03.045023	6.661710E-1	8.798811E-3	3.450188E-3	3.838875E-3	1.245472E-3	6.139764E-4	6.938793E-3	1.066443E-3
10/19/2017  17:33:03.046023	3.878637E-1	4.484245E-3	1.786850E-3	4.254688E-3	1.005916E-2	4.260201E-3	5.304061E-3	4.997699E-3
10/19/2017  17:33:03.047023	4.772795E-2	3.425907E-3	4.445016E-4	5.194065E-3	8.111657E-4	5.428821E-3	4.185901E-4	1.074615E-3
10/19/2017  17:33:03.048023	4.773445E-1	1.827066E-3	2.772159E-3	1.204861E-2	4.923339E-3	4.627772E-4	6.674800E-3	1.130027E-3
10/19/2017  17:33:03.049023	1.422346E+0	7.423161E-3	9.347409E-3	8.461829E-3	3.184924E-3	6.861760E-3	4.248454E-3	5.482587E-3
10/19/2017  17:33:03.050023	1.329080E+0	7.250957E-3	1.422240E-3	3.372948E-3	1.106983E-2	4.683088E-3	5.467673E-3	2.345441E-4
10/19/2017  17:33:03.051023	3.669328E-1	6.206130E-3	4.459420E-4	2.658182E-3	3.256523E-3	1.223009E-2	3.765558E-4	2.156469E-3
10/19/2017  17:33:03.052023	2.253474E+0	1.350556E-2	8.946084E-3	1.557494E-2	4.713504E-3	6.579952E-3	2.615211E-4	1.251513E-3
10/19/2017  17:33:03.053023	1.999586E+0	8.863580E-4	8.829888E-3	2.201603E-2	1.026468E-2	4.304615E-3	1.981194E-3	1.655963E-3
10/19/2017  17:33:03.054023	4.433101E-1	1.041614E-2	2.485729E-3	6.827003E-3	8.053099E-4	3.119942E-3	2.982543E-3	8.030730E-3
10/19/2017  17:33:03.055023	6.753806E-1	3.511263E-3	4.084623E-3	7.941867E-3	1.743010E-3	6.834496E-3	2.197903E-3	1.479432E-3
10/19/2017  17:33:03.056023	6.178198E-1	4.440216E-4	1.396969E-3	2.343909E-3	5.689324E-3	2.935070E-3	3.656161E-3	9.780694E-3
10/19/2017  17:33:03.057023	2.486094E+0	3.836930E-4	3.089807E-3	5.252894E-3	2.535701E-3	6.461884E-3	8.826391E-3	4.469322E-3
10/19/2017  17:33:03.058023	3.143148E+0	3.310925E-4	6.672949E-3	1.026336E-2	8.333731E-3	2.108027E-3	5.174208E-3	8.243904E-3
10/19/2017  17:33:03.059023	7.262870E-1	2.443660E-3	8.164371E-3	8.082374E-3	3.438907E-3	7.648987E-3	8.610862E-3	8.427818E-3
10/19/2017  17:33:03.060023	3.469438E+0	4.779915E-3	7.485156E-3	1.863483E-3	4.024043E-3	1.220346E-2	2.099135E-3	6.022492E-3
10/19/2017  17:33:03.061023	5.076307E+0	7.512991E-3	3.142291E-3	9.157996E-3	2.310273E-3	2.349331E-3	5.099712E-4	3.277710E-4
								
10/19/2017  17:33:03.062023	2.922226E+0	1.248528E-3	4.505903E-3	3.672807E-3	1.117915E-2	1.706105E-2	1.964949E-3	4.924181E-3
10/19/2017  17:33:03.063023	8.682429E-1	1.182887E-2	9.560220E-4	2.673316E-3	1.968340E-4	3.108587E-3	6.468686E-4	8.037405E-3
10/19/2017  17:33:03.064023	9.841279E-1	5.384099E-4	4.813867E-3	5.032305E-3	4.011602E-3	1.793399E-2	6.142170E-3	7.753960E-3
10/19/2017  17:33:03.065023	6.566095E-1	5.649889E-3	8.467695E-4	6.557878E-3	4.293740E-3	2.072095E-3	4.328191E-5	1.010620E-2
10/19/2017  17:33:03.066023	2.292515E-1	5.318518E-3	2.107533E-3	7.388966E-3	1.012639E-2	5.137293E-3	2.353791E-3	7.419051E-3
10/19/2017  17:33:03.067023	1.476484E+0	4.395534E-3	2.037201E-3	7.650912E-3	1.171663E-2	5.780632E-3	3.934083E-4	9.975568E-3
10/19/2017  17:33:03.068023	1.490987E-1	1.004344E-2	4.104745E-3	1.198503E-2	2.850902E-3	3.801919E-3	1.864616E-4	4.777829E-3
10/19/2017  17:33:03.069023	3.836090E+0	7.057885E-4	7.512292E-3	4.646232E-3	8.376826E-3	2.154279E-3	4.333206E-3	1.216157E-2
10/19/2017  17:33:03.070023	4.995683E+0	4.097696E-4	1.795054E-3	1.855576E-2	5.627663E-3	2.071637E-3	5.847748E-3	6.542031E-3
10/19/2017  17:33:03.071023	6.645316E-1	4.159147E-3	6.317417E-3	8.212087E-3	6.873925E-3	4.113049E-3	2.175144E-3	4.309746E-3
10/19/2017  17:33:03.072023	3.570745E+0	1.363111E-3	1.149037E-2	1.702093E-2	1.017418E-3	7.577128E-3	2.948934E-3	1.169207E-3
10/19/2017  17:33:03.073023	4.258410E+0	9.585161E-3	1.738509E-3	2.155913E-2	1.044482E-3	3.229061E-3	4.355608E-3	5.435332E-3
10/19/2017  17:33:03.074023	3.229806E+0	2.080796E-3	1.186186E-2	1.083223E-4	6.212618E-3	8.713259E-3	5.624932E-3	7.365251E-3
10/19/2017  17:33:03.075023	2.048159E+0	7.795212E-3	1.672763E-3	6.248048E-3	1.118114E-2	5.021204E-3	6.081676E-3	9.802580E-3
10/19/2017  17:33:03.076023	1.784161E+0	3.806492E-3	1.449580E-3	1.988965E-2	9.091558E-4	1.038414E-2	3.651255E-4	6.162000E-3
10/19/2017  17:33:03.077023	2.998547E+0	2.946067E-3	1.501799E-3	3.230631E-3	3.113259E-3	2.964258E-3	5.027048E-3	6.589714E-3
10/19/2017  17:33:03.078023	1.327305E+0	2.204772E-3	5.814015E-3	8.963486E-3	2.418731E-3	2.556109E-3	1.680978E-2	2.057249E-3
10/19/2017  17:33:03.079023	1.979871E+0	2.744672E-3	4.297507E-3	9.183873E-5	2.505451E-3	2.175116E-3	3.549532E-3	6.058953E-3
10/19/2017  17:33:03.080023	3.766109E+0	1.049519E-2	5.901213E-3	2.365083E-3	2.733810E-3	9.675957E-3	7.307938E-3	2.198806E-3
10/19/2017  17:33:03.081023	4.069571E+0	4.509317E-4	1.078235E-2	4.728390E-3	2.259097E-3	1.132105E-2	7.551040E-3	6.867671E-4
10/19/2017  17:33:03.082023	8.601880E-1	4.701799E-3	2.851543E-3	5.272531E-3	7.898664E-3	5.295133E-3	3.062562E-3	5.836081E-4
10/19/2017  17:33:03.083023	8.496644E-1	8.247780E-3	1.382766E-2	9.693724E-3	2.903357E-3	1.056535E-2	2.492635E-3	6.965064E-3
10/19/2017  17:33:03.084023	6.761188E-1	1.813482E-3	1.462716E-3	6.138496E-4	7.381301E-3	3.401742E-3	6.716115E-5	4.375837E-4
10/19/2017  17:33:03.085023	4.871668E-1	7.403682E-4	5.434058E-3	8.114840E-3	8.012876E-3	6.101311E-3	6.747447E-3	2.167057E-3
10/19/2017  17:33:03.086023	4.182020E+0	3.861479E-4	6.289123E-4	1.539584E-2	3.797230E-3	6.796139E-3	2.723065E-3	5.354821E-3
10/19/2017  17:33:03.087023	2.933100E+0	4.427716E-3	7.171845E-3	9.173790E-3	1.576796E-3	5.783975E-3	4.625543E-3	1.486876E-2
10/19/2017  17:33:03.088023	7.600683E-1	1.359611E-2	5.106884E-3	2.102541E-3	3.274329E-3	5.658622E-4	5.395880E-3	4.883011E-3
10/19/2017  17:33:03.089023	2.226905E-1	1.285752E-2	5.552235E-3	9.602604E-3	6.376378E-3	5.636936E-3	7.846921E-4	1.651121E-3
10/19/2017  17:33:03.090023	1.685992E+0	1.194359E-2	7.355869E-3	1.545145E-2	6.545746E-3	3.165319E-3	7.381315E-3	1.434854E-3
10/19/2017  17:33:03.091023	1.067592E+0	2.107420E-3	7.685464E-3	4.840342E-3	8.801280E-3	5.105666E-3	3.169196E-3	9.229624E-4
10/19/2017  17:33:03.092023	1.449226E-1	5.098992E-3	5.389375E-3	1.280223E-2	1.081042E-2	8.476509E-3	2.133456E-3	2.555845E-3
10/19/2017  17:33:03.093023	5.000906E-1	1.442961E-3	8.820088E-4	9.323959E-3	1.245729E-3	4.059494E-3	8.961090E-4	1.424500E-3
10/19/2017  17:33:03.094023	2.049440E+0	5.561550E-3	5.421127E-3	8.760898E-3	9.915790E-3	6.863309E-4	1.246553E-3	8.130655E-3
								
10/19/2017  17:33:03.095023	1.217633E+0	8.169594E-3	1.444612E-4	1.709318E-2	4.909525E-3	6.109132E-3	8.091173E-3	8.188943E-3
10/19/2017  17:33:03.096023	2.033225E+0	9.852117E-4	2.189108E-4	1.475388E-3	5.417604E-3	4.252920E-3	1.517652E-3	1.000567E-2
10/19/2017  17:33:03.097023	6.031653E+0	7.819994E-6	5.961966E-3	2.131214E-2	6.118703E-3	1.610564E-3	9.756725E-3	2.146020E-3
10/19/2017  17:33:03.098023	4.700869E+0	1.379329E-3	2.880562E-3	8.699519E-3	4.495353E-3	6.966378E-4	2.303149E-3	1.302380E-2
10/19/2017  17:33:03.099023	2.134390E+0	6.420141E-3	2.706241E-3	1.164195E-2	1.026582E-3	8.486478E-3	7.530719E-3	1.288904E-3
10/19/2017  17:33:03.100023	5.198953E-1	7.506108E-3	8.996143E-3	4.432084E-3	3.717669E-3	3.993758E-4	7.828909E-3	1.431171E-3
10/19/2017  17:33:03.101023	2.455007E+0	6.356378E-4	4.509948E-3	6.342186E-4	4.811758E-3	8.952868E-3	9.422499E-4	5.295886E-3
10/19/2017  17:33:03.102023	2.165962E+0	6.523735E-3	3.240182E-3	8.668694E-3	1.118012E-3	4.136507E-4	7.225103E-3	1.238273E-3
10/19/2017  17:33:03.103023	2.383605E+0	6.155552E-4	6.471324E-3	4.211411E-3	5.349996E-3	2.843343E-3	3.692646E-3	3.937358E-3
10/19/2017  17:33:03.104023	2.511516E+0	2.822854E-3	8.850791E-3	5.653979E-3	5.028018E-4	4.477873E-3	1.548716E-3	9.675712E-3
10/19/2017  17:33:03.105023	3.420078E+0	2.129838E-3	9.308034E-3	1.895561E-2	1.787044E-3	7.607153E-3	5.241435E-3	6.892409E-3
10/19/2017  17:33:03.106023	9.011444E-1	3.685827E-3	3.872136E-4	1.661648E-3	7.478234E-3	8.484732E-4	7.468941E-3	1.935506E-3
10/19/2017  17:33:03.107023	3.848331E-1	6.174967E-3	2.593526E-3	1.531321E-2	8.252294E-4	8.422164E-3	3.351596E-3	8.247368E-3
10/19/2017  17:33:03.108023	4.981619E-1	4.372483E-3	8.893377E-3	7.492368E-3	2.471354E-3	2.524073E-3	4.084604E-3	3.803638E-3
10/19/2017  17:33:03.109023	2.055984E+0	2.867241E-3	1.622997E-3	3.734017E-3	9.463899E-3	1.631385E-3	2.779520E-3	1.729682E-3
10/19/2017  17:33:03.110023	2.292899E-1	9.163017E-3	5.883699E-3	5.591113E-3	2.487466E-3	1.598969E-2	2.616083E-3	9.956419E-3
10/19/2017  17:33:03.111023	1.858057E-1	8.778800E-3	4.569205E-3	5.529921E-3	1.662208E-3	4.702181E-3	4.236630E-3	4.608998E-3
10/19/2017  17:33:03.112023	2.067252E+0	4.882513E-3	3.420329E-3	7.792231E-3	5.524901E-3	1.732832E-2	5.207467E-3	1.665255E-3
10/19/2017  17:33:03.113023	2.066960E+0	5.733906E-4	2.654531E-4	4.515745E-3	6.844784E-3	6.254928E-3	2.986139E-3	1.264481E-2
10/19/2017  17:33:03.114023	1.883592E+0	2.035068E-3	1.208322E-4	6.326969E-3	4.058887E-3	4.479636E-3	1.467997E-4	7.052091E-3
10/19/2017  17:33:03.115023	4.594736E+0	2.622312E-3	6.490691E-3	1.226441E-3	2.070175E-2	5.654282E-3	4.592804E-3	1.025751E-2
10/19/2017  17:33:03.116023	7.417606E+0	3.659922E-3	4.153966E-3	6.394903E-3	7.926879E-3	6.229349E-3	1.124505E-3	2.824038E-3
10/19/2017  17:33:03.117023	5.686247E+0	4.447242E-3	7.301156E-3	1.593931E-2	1.096485E-2	1.292598E-4	1.421468E-3	4.842511E-3
10/19/2017  17:33:03.118023	3.713889E+0	5.815967E-3	4.879686E-3	1.773908E-2	4.056299E-3	4.725920E-3	1.129520E-3	8.004394E-3
10/19/2017  17:33:03.119023	1.067120E+0	2.249992E-3	1.010719E-2	1.318475E-3	5.417778E-3	1.357341E-3	5.076032E-3	1.167615E-2
10/19/2017  17:33:03.120023	1.609010E+0	3.911865E-3	5.369224E-3	1.727815E-2	3.316114E-4	3.188242E-3	9.557402E-4	5.879156E-3
10/19/2017  17:33:03.121023	2.674718E+0	1.544373E-3	4.745449E-3	2.158496E-3	1.300481E-4	8.600495E-3	3.115768E-3	1.587430E-2
10/19/2017  17:33:03.122023	2.988428E+0	1.070324E-3	3.149982E-3	1.739862E-2	2.143993E-3	5.897842E-3	2.233286E-4	6.092799E-4
10/19/2017  17:33:03.123023	2.554196E+0	2.900798E-3	8.980848E-3	6.148347E-3	2.998294E-3	1.362124E-2	2.449588E-3	1.042309E-2
10/19/2017  17:33:03.124023	1.937375E+0	2.401863E-3	4.372818E-3	1.647304E-2	6.418204E-3	7.639490E-3	2.535331E-3	3.703886E-3
10/19/2017  17:33:03.125023	2.174154E+0	2.510530E-3	5.624473E-3	3.799085E-3	2.250253E-3	5.681006E-3	4.627417E-4	5.091462E-3
10/19/2017  17:33:03.126023	2.172886E+0	4.875292E-3	4.715089E-3	1.029687E-3	1.913771E-3	4.381287E-3	4.442762E-4	1.541769E-3
10/19/2017  17:33:03.127023	2.233902E+0	7.287932E-3	1.011049E-3	3.131900E-3	1.024581E-2	1.561683E-3	4.725725E-3	1.097690E-3
								
10/19/2017  17:33:03.128023	4.565016E+0	5.843358E-4	7.250773E-3	3.778456E-3	2.772444E-3	6.641974E-4	3.208807E-3	3.512710E-3
10/19/2017  17:33:03.129023	4.267810E+0	2.171336E-3	3.720926E-3	2.472469E-3	6.221684E-4	3.450778E-5	1.998405E-3	4.490362E-3
10/19/2017  17:33:03.130023	3.970335E+0	1.145916E-3	7.152087E-3	6.926619E-3	7.422990E-3	6.942716E-3	5.146599E-3	1.528417E-3
10/19/2017  17:33:03.131023	1.658230E+0	1.000416E-2	9.292535E-3	1.418399E-2	3.123534E-3	1.270824E-3	7.263274E-4	1.015800E-2
10/19/2017  17:33:03.132023	2.519701E+0	7.312843E-3	4.748781E-3	2.841854E-3	2.810224E-4	3.689013E-3	7.080595E-3	3.496073E-3
10/19/2017  17:33:03.133023	1.869158E+0	2.867366E-3	3.892560E-3	8.512566E-3	2.763134E-3	6.320425E-4	5.265177E-4	1.099475E-2
10/19/2017  17:33:03.134023	1.390677E+0	1.345269E-2	3.131455E-3	2.915812E-3	2.028322E-3	5.689032E-4	2.091837E-3	5.741559E-3
10/19/2017  17:33:03.135023	1.466179E+0	3.459290E-3	4.019134E-3	2.379478E-3	7.636130E-3	5.972680E-3	1.754579E-3	8.951984E-3
10/19/2017  17:33:03.136023	2.288346E-1	2.195663E-2	1.837975E-3	1.700332E-2	5.617064E-3	9.036539E-3	2.859897E-3	4.405376E-3
10/19/2017  17:33:03.137023	2.021229E-1	8.954269E-3	8.158221E-3	2.942504E-3	6.912837E-3	2.170178E-3	6.023061E-3	1.229098E-3
10/19/2017  17:33:03.138023	1.215946E-1	4.978849E-3	3.702527E-3	1.172998E-2	6.959520E-3	7.278721E-4	4.970538E-3	5.237128E-3
10/19/2017  17:33:03.139023	3.656965E-2	2.144100E-4	4.013895E-3	2.392892E-3	2.013921E-3	1.518277E-3	4.079417E-3	7.574867E-4
10/19/2017  17:33:03.140023	2.466245E-1	4.737643E-3	2.926142E-3	2.093611E-3	1.708145E-2	8.862269E-4	5.442887E-3	3.579670E-3
10/19/2017  17:33:03.141023	3.595763E-1	2.667772E-3	2.304927E-3	3.334923E-4	5.512964E-3	4.680051E-3	1.873710E-3	8.594163E-3
10/19/2017  17:33:03.142023	2.546070E-1	7.928224E-4	5.960555E-3	6.342884E-3	1.393334E-2	2.837828E-3	2.941445E-3	1.265876E-2
10/19/2017  17:33:03.143023	9.692437E-1	5.447358E-3	3.430228E-4	4.803032E-3	5.688072E-3	5.154801E-3	6.273105E-3	1.413357E-4
10/19/2017  17:33:03.144023	2.398649E+0	6.418220E-3	2.743057E-3	1.051260E-2	4.848142E-3	8.571716E-3	2.424482E-3	9.415926E-3
10/19/2017  17:33:03.145023	2.888235E+0	8.983269E-3	6.536565E-3	2.065508E-2	7.897796E-3	1.248649E-4	1.507665E-2	5.992030E-4
10/19/2017  17:33:03.146023	3.582648E-1	2.565841E-3	6.820433E-3	7.588565E-3	3.225808E-3	6.368165E-3	4.065002E-3	1.431014E-3
10/19/2017  17:33:03.147023	8.319346E-1	4.336744E-3	1.274144E-2	1.035834E-2	2.489465E-3	2.488285E-4	8.417978E-3	6.375939E-4
10/19/2017  17:33:03.148023	9.027996E-1	3.290887E-3	6.808011E-3	1.105252E-3	6.533559E-3	2.883943E-3	8.434610E-3	4.316679E-3
10/19/2017  17:33:03.149023	6.192625E-1	8.383456E-3	2.184693E-3	9.922329E-3	7.007047E-3	1.547700E-2	1.238581E-2	7.715284E-3
10/19/2017  17:33:03.150023	1.950877E-1	9.893385E-3	1.210296E-2	9.946375E-5	8.122547E-3	6.559718E-3	9.106892E-3	5.494992E-3
10/19/2017  17:33:03.151023	2.313503E-1	8.976968E-3	4.598225E-3	1.566619E-2	5.661540E-3	2.160883E-4	1.685717E-3	5.015285E-3
10/19/2017  17:33:03.152023	4.871682E-1	1.359961E-2	1.149290E-3	2.551327E-3	7.269097E-4	7.314993E-3	3.596363E-3	5.904378E-3
10/19/2017  17:33:03.153023	1.156958E+0	5.244600E-3	7.872749E-3	5.514248E-4	9.661928E-3	8.023415E-4	9.416965E-3	4.513828E-3
10/19/2017  17:33:03.154023	1.427258E+0	5.600779E-3	3.276802E-3	7.110329E-3	8.128044E-3	8.648483E-5	2.383811E-3	3.170616E-3
10/19/2017  17:33:03.155023	3.319788E+0	7.394233E-3	6.851064E-3	5.039691E-3	5.418663E-3	2.642835E-3	1.495920E-3	1.203188E-4
10/19/2017  17:33:03.156023	1.338709E+0	7.817998E-3	2.625690E-3	5.335292E-3	6.688843E-3	6.258163E-3	7.470513E-4	2.511793E-3
10/19/2017  17:33:03.157023	1.703411E-2	1.165266E-2	7.042734E-3	3.931155E-3	1.305673E-2	7.106136E-3	8.505026E-3	2.334036E-3
10/19/2017  17:33:03.158023	1.917583E+0	1.375116E-3	1.418097E-3	5.908792E-3	1.439189E-3	5.125365E-3	2.947475E-4	5.691540E-3
10/19/2017  17:33:03.159023	4.590952E+0	3.975688E-3	1.201535E-3	4.084818E-3	3.165517E-3	1.010467E-2	2.284756E-3	5.146495E-3
10/19/2017  17:33:03.160023	6.392461E+0	1.213043E-3	1.278401E-3	1.471530E-2	2.100783E-3	1.225902E-3	3.589522E-3	1.275880E-2
								
10/19/2017  17:33:03.161023	4.554710E+0	5.115608E-3	7.801845E-3	2.108884E-2	9.590169E-3	9.910788E-3	8.618825E-3	2.551626E-3
10/19/2017  17:33:03.162023	1.771271E+0	1.397562E-3	3.177829E-3	9.939236E-3	6.741758E-3	1.561283E-3	6.251626E-3	7.099137E-3
10/19/2017  17:33:03.163023	2.588169E+0	1.757624E-3	8.965103E-3	1.465452E-2	1.024778E-5	3.293832E-3	8.690030E-3	9.422112E-3
10/19/2017  17:33:03.164023	5.057481E-1	1.061634E-2	6.515699E-3	6.320336E-3	4.898134E-3	1.070811E-2	8.259483E-3	6.623913E-3
10/19/2017  17:33:03.165023	1.459443E+0	1.005123E-2	6.360748E-3	3.800384E-3	6.884315E-3	5.157476E-3	1.188642E-2	9.262740E-3
10/19/2017  17:33:03.166023	2.400664E+0	2.681044E-3	8.877444E-3	6.902133E-3	2.008189E-3	8.573614E-4	6.457349E-3	2.223455E-3
10/19/2017  17:33:03.167023	1.222312E+0	2.805530E-3	4.851156E-3	7.878818E-3	8.168889E-3	1.099629E-2	2.243944E-3	1.041690E-2
10/19/2017  17:33:03.168023	3.608696E+0	4.104573E-3	8.058815E-3	9.022650E-3	4.376087E-3	1.822739E-3	7.393965E-3	1.431096E-3
10/19/2017  17:33:03.169023	2.853755E+0	2.348348E-3	2.961724E-3	5.613225E-3	5.820051E-3	2.666511E-3	1.066137E-3	7.351929E-3
10/19/2017  17:33:03.170023	2.344052E+0	5.584432E-3	4.295202E-3	1.661607E-2	4.198600E-3	5.732114E-3	5.695124E-3	1.806846E-3
10/19/2017  17:33:03.171023	9.266709E-1	4.646192E-3	5.741004E-3	8.148369E-3	1.786968E-3	1.181544E-2	2.655836E-3	1.052484E-2
10/19/2017  17:33:03.172023	2.480735E+0	1.662297E-3	4.062270E-3	9.123392E-3	6.043799E-3	1.100825E-2	1.072237E-2	1.231737E-3
10/19/2017  17:33:03.173023	1.351855E+0	4.827037E-3	8.155041E-3	4.627732E-4	6.680072E-3	9.500620E-3	1.233839E-3	7.432994E-3
10/19/2017  17:33:03.174023	1.034033E+0	3.734468E-3	5.794780E-3	3.040987E-3	6.166077E-3	8.469184E-5	1.413195E-2	1.417474E-3
10/19/2017  17:33:03.175023	1.683204E+0	1.195118E-2	6.982347E-3	9.088133E-3	2.168278E-3	1.103671E-2	9.661174E-4	5.603315E-3
10/19/2017  17:33:03.176023	1.403512E+0	8.407668E-5	5.074491E-3	2.114225E-3	9.462276E-3	3.051077E-3	5.349346E-3	2.503233E-4
10/19/2017  17:33:03.177023	1.110422E+0	6.297392E-3	7.344389E-3	3.636589E-3	2.237287E-3	8.756846E-3	1.804894E-3	6.598117E-3
10/19/2017  17:33:03.178023	1.326531E+0	6.685807E-3	3.000676E-3	8.370498E-3	9.603829E-3	4.930072E-4	2.984090E-3	2.115231E-3
10/19/2017  17:33:03.179023	5.540332E-1	7.112518E-3	1.539355E-2	3.631993E-3	4.738279E-3	1.146931E-2	1.840741E-4	1.856712E-3
10/19/2017  17:33:03.180023	2.493106E+0	8.025941E-3	2.319621E-3	2.147041E-3	1.019686E-3	5.854697E-4	2.469050E-3	3.777908E-3
10/19/2017  17:33:03.181023	3.149337E+0	8.603296E-4	2.266110E-3	1.264530E-3	8.205833E-3	1.358263E-2	4.007874E-3	1.464921E-3
10/19/2017  17:33:03.182023	1.945837E+0	1.435996E-2	1.062509E-3	1.592536E-3	2.843015E-3	5.045982E-3	2.766945E-3	5.153393E-3
10/19/2017  17:33:03.183023	4.733888E+0	5.595618E-3	7.781217E-3	6.163969E-3	4.193604E-3	5.691943E-3	6.906647E-3	3.220929E-3
10/19/2017  17:33:03.184023	2.305507E+0	3.980344E-3	1.497435E-3	6.062025E-4	1.016883E-2	6.729277E-3	6.226344E-4	1.132351E-2
10/19/2017  17:33:03.185023	7.964442E-1	8.789514E-3	5.239922E-3	3.120449E-3	2.716359E-3	1.449481E-3	8.246875E-3	1.886782E-3
10/19/2017  17:33:03.186023	4.563073E+0	1.115039E-2	3.347467E-3	2.684027E-3	1.506923E-3	2.947946E-3	3.450196E-3	4.983307E-3
10/19/2017  17:33:03.187023	5.673464E-1	4.926292E-3	9.010020E-3	6.612898E-3	8.145833E-3	4.413727E-4	8.834188E-3	3.207792E-3
10/19/2017  17:33:03.188023	4.140597E+0	9.614798E-3	1.104645E-2	3.796494E-3	2.541290E-3	5.041268E-3	4.358797E-3	1.120448E-2
10/19/2017  17:33:03.189023	3.240188E+0	2.350528E-3	1.195723E-3	1.865630E-3	5.062351E-3	1.028960E-2	3.374762E-3	8.134023E-3
10/19/2017  17:33:03.190023	2.817395E-1	1.276853E-3	5.991410E-3	3.721568E-3	6.008199E-3	6.194714E-4	1.094348E-2	9.583260E-3
10/19/2017  17:33:03.191023	1.798155E+0	3.810347E-4	4.194285E-3	7.060300E-3	4.396944E-3	8.580347E-3	2.910644E-3	4.653020E-3
10/19/2017  17:33:03.192023	2.266285E-1	8.986427E-3	5.068174E-4	5.992308E-3	1.299640E-3	6.211411E-3	5.229803E-3	3.434980E-3
10/19/2017  17:33:03.193023	2.607896E+0	2.645596E-4	8.584343E-3	7.678060E-6	5.351886E-3	4.408691E-3	6.598727E-3	1.681524E-3
								
10/19/2017  17:33:03.194023	3.776308E+0	8.147319E-3	1.176561E-3	1.298247E-2	6.348578E-4	3.216830E-3	3.005732E-3	1.630377E-2
10/19/2017  17:33:03.195023	2.335869E+0	3.495343E-3	1.039398E-2	1.954071E-2	9.257927E-3	2.124295E-3	4.615549E-3	1.741546E-3
10/19/2017  17:33:03.196023	1.117527E+0	1.826208E-2	3.657851E-3	6.977450E-3	6.380195E-3	1.576717E-3	5.223058E-3	8.237939E-3
10/19/2017  17:33:03.197023	4.307364E+0	2.177944E-3	3.485436E-3	8.599662E-3	6.843899E-3	5.441744E-3	8.826319E-4	2.531366E-3
10/19/2017  17:33:03.198023	5.895693E+0	1.599742E-2	1.100242E-2	1.324842E-3	9.601294E-3	4.977225E-3	7.407843E-3	7.979095E-3
10/19/2017  17:33:03.199023	2.013704E+0	2.796053E-4	7.988556E-3	4.642560E-3	1.829276E-3	5.775434E-3	9.711688E-4	2.844980E-3
10/19/2017  17:33:03.200023	1.038597E+0	8.936047E-3	5.369595E-3	1.313171E-2	9.985308E-3	2.571871E-3	3.733198E-3	1.401536E-2
10/19/2017  17:33:03.201023	3.821443E-1	4.396275E-3	3.456537E-4	1.004818E-2	2.386867E-4	4.177109E-3	2.654763E-3	6.145074E-3
10/19/2017  17:33:03.202023	7.342479E-1	9.249985E-4	1.069452E-2	8.834548E-4	1.115428E-2	3.475897E-3	9.023006E-3	2.153903E-4
10/19/2017  17:33:03.203023	4.601537E-1	3.788566E-3	3.444112E-3	1.464097E-3	1.550346E-3	8.809423E-3	2.687397E-4	4.058888E-3
10/19/2017  17:33:03.204023	1.046614E-1	1.617330E-3	2.683000E-3	3.362513E-3	3.284847E-3	5.068274E-3	6.990524E-3	1.125359E-2
10/19/2017  17:33:03.205023	3.120482E+0	1.183637E-2	6.333800E-3	6.644791E-3	1.349933E-4	2.281451E-4	5.066708E-3	1.003275E-2
10/19/2017  17:33:03.206023	4.302595E+0	9.257572E-3	1.534921E-5	1.079909E-2	2.872242E-5	2.491482E-3	7.333659E-3	1.199790E-2
10/19/2017  17:33:03.207023	7.439490E-2	1.325118E-2	2.407682E-3	6.254383E-3	4.494045E-5	6.122823E-5	7.283017E-3	2.243076E-3
10/19/2017  17:33:03.208023	3.736227E+0	3.932928E-3	6.726704E-3	1.404721E-2	9.116684E-5	5.969067E-3	1.762545E-3	3.776579E-3
10/19/2017  17:33:03.209023	3.853976E+0	7.537607E-3	2.163847E-3	2.505219E-3	8.768939E-3	5.127096E-3	8.252532E-3	3.920742E-3
10/19/2017  17:33:03.210023	2.251131E-1	3.335777E-3	4.198913E-3	9.516858E-3	1.605893E-3	2.144991E-3	1.796834E-3	2.799687E-3
10/19/2017  17:33:03.211023	6.364602E-1	1.587932E-4	1.193272E-3	5.026421E-4	1.665716E-2	2.101371E-3	7.576927E-4	3.999448E-3
10/19/2017  17:33:03.212023	9.332489E-1	2.174525E-3	3.154071E-3	1.030153E-2	1.230193E-3	4.166857E-3	2.545781E-3	6.152721E-3
10/19/2017  17:33:03.213023	4.564074E-1	8.030418E-4	3.761296E-4	2.735650E-4	1.190160E-2	1.166973E-3	4.938307E-3	6.740866E-3
10/19/2017  17:33:03.214023	9.005266E-2	2.925392E-3	5.103976E-3	5.559158E-4	4.494675E-4	1.121834E-3	1.488563E-3	1.768818E-3
10/19/2017  17:33:03.215023	2.073621E+0	4.306770E-3	1.828079E-3	3.368443E-3	7.077716E-4	5.358829E-3	3.215349E-3	7.814147E-3
10/19/2017  17:33:03.216023	3.204102E+0	1.487556E-3	5.883344E-3	1.179413E-2	3.424994E-3	2.640868E-3	2.129587E-3	1.164745E-3
10/19/2017  17:33:03.217023	3.903115E+0	3.025034E-3	2.055882E-3	1.088172E-2	2.460247E-3	1.821981E-3	9.289318E-4	1.192981E-2
10/19/2017  17:33:03.218023	2.576152E-1	3.623663E-4	2.969973E-3	1.187912E-2	6.637360E-3	9.633360E-3	5.270567E-3	2.442727E-3
10/19/2017  17:33:03.219023	1.794641E+0	9.288339E-3	8.626973E-3	1.176854E-2	9.374633E-3	4.457540E-3	3.850539E-3	1.700550E-2
10/19/2017  17:33:03.220023	1.717825E+0	4.503895E-3	9.301451E-3	3.047506E-2	4.230257E-3	4.780641E-3	1.030304E-2	5.091657E-3
10/19/2017  17:33:03.221023	7.303054E-1	5.645473E-3	6.672330E-3	7.169694E-3	5.188122E-3	3.892090E-4	4.911323E-3	1.027824E-2
10/19/2017  17:33:03.222023	1.757777E+0	4.081166E-3	2.033616E-3	1.890344E-2	3.023053E-3	1.152780E-2	5.080395E-3	1.521159E-3
10/19/2017  17:33:03.223023	1.409785E+0	6.103276E-4	1.256721E-2	7.068956E-3	4.481579E-3	8.868603E-3	8.039780E-3	4.834819E-4
10/19/2017  17:33:03.224023	1.835233E+0	1.925649E-3	2.012480E-3	6.126303E-3	9.951173E-4	4.204344E-3	1.070205E-2	4.010548E-3
10/19/2017  17:33:03.225023	2.196092E+0	1.511055E-3	1.242980E-2	2.418501E-3	5.904122E-3	2.597736E-3	2.957233E-3	4.491162E-3
10/19/2017  17:33:03.226023	1.859898E-1	7.617242E-3	2.255372E-3	3.440560E-4	1.952054E-3	7.361119E-3	2.449580E-3	8.312765E-3
								
10/19/2017  17:33:03.227023	7.607533E-1	8.494351E-4	4.128237E-3	1.425124E-4	3.156970E-3	3.440093E-3	6.231389E-3	2.229205E-3
10/19/2017  17:33:03.228023	8.540792E-1	1.316293E-2	5.317255E-3	8.666246E-3	4.534673E-3	1.682148E-3	4.334294E-3	1.055809E-3
10/19/2017  17:33:03.229023	9.677718E-1	2.369355E-4	2.698705E-3	1.647508E-3	3.345096E-3	1.175469E-2	3.746972E-3	1.282783E-4
10/19/2017  17:33:03.230023	6.228520E-1	1.861533E-2	4.021551E-3	9.986010E-3	2.224358E-4	7.479607E-3	1.347566E-3	9.216864E-3
10/19/2017  17:33:03.231023	5.709750E-1	3.003669E-3	3.869248E-3	2.788255E-3	1.330102E-4	1.456250E-2	5.931808E-4	3.886753E-3
10/19/2017  17:33:03.232023	2.383320E-1	1.323606E-2	7.234231E-3	1.334447E-2	2.231000E-3	4.743740E-3	2.128686E-3	1.973283E-3
10/19/2017  17:33:03.233023	4.770714E-1	5.916563E-3	7.954485E-3	5.842211E-4	2.851806E-3	5.489222E-3	7.712132E-3	3.645001E-4
10/19/2017  17:33:03.234023	9.094270E-1	1.507292E-2	5.567801E-3	4.340001E-3	1.122363E-4	5.024805E-3	8.020576E-3	8.766857E-3
10/19/2017  17:33:03.235023	1.120925E+0	7.768132E-4	2.913761E-3	5.549715E-3	2.078229E-3	3.735992E-3	7.384412E-4	6.289952E-3
10/19/2017  17:33:03.236023	3.890568E+0	3.603863E-3	6.762698E-3	6.168345E-3	1.003749E-2	4.647811E-4	7.008462E-3	2.009630E-3
10/19/2017  17:33:03.237023	2.621047E+0	9.870657E-3	1.558713E-3	1.278669E-2	2.043101E-3	6.252612E-3	1.764231E-3	1.235907E-3
10/19/2017  17:33:03.238023	1.384893E+0	3.190671E-3	9.945068E-4	1.774730E-3	8.543847E-3	6.454006E-3	2.757428E-3	7.236638E-4
10/19/2017  17:33:03.239023	3.847103E-1	1.738287E-3	1.242498E-2	6.339328E-3	2.053748E-3	2.340048E-3	1.535556E-3	4.454739E-3
10/19/2017  17:33:03.240023	4.408984E+0	3.450966E-3	2.064130E-3	3.348771E-3	7.022091E-3	7.642338E-4	5.390649E-4	5.895870E-3
10/19/2017  17:33:03.241023	8.092049E+0	7.049597E-3	3.379019E-3	3.284505E-3	6.268430E-3	9.480204E-3	8.886292E-3	2.436701E-4
10/19/2017  17:33:03.242023	5.996343E+0	1.477107E-3	5.031489E-3	1.827916E-2	6.926899E-3	4.087227E-3	8.826910E-3	2.683829E-3
10/19/2017  17:33:03.243023	4.203254E+0	1.087361E-3	1.702967E-3	8.818331E-3	4.923274E-3	9.341202E-3	4.060779E-3	6.434609E-3
10/19/2017  17:33:03.244023	1.073175E+0	5.708321E-3	7.532147E-4	3.726715E-3	1.191320E-2	2.454467E-3	3.904803E-3	2.455994E-3
10/19/2017  17:33:03.245023	1.953459E+0	1.683755E-3	1.849125E-3	4.143750E-3	2.467290E-3	8.732165E-3	3.022428E-3	6.646629E-3
10/19/2017  17:33:03.246023	2.304018E+0	3.488406E-3	4.985389E-3	8.795149E-3	8.391571E-3	6.541532E-3	4.202721E-3	5.707598E-3
10/19/2017  17:33:03.247023	2.630723E+0	4.930395E-3	3.303335E-3	1.130781E-2	5.049555E-3	4.254768E-3	3.760026E-3	5.663064E-3
10/19/2017  17:33:03.248023	1.561523E+0	7.132084E-4	4.827198E-3	1.047796E-2	8.023984E-3	1.059463E-2	7.190426E-3	1.196629E-2
10/19/2017  17:33:03.249023	3.738738E-1	1.336565E-2	7.658504E-4	1.408008E-3	1.184660E-2	3.575076E-3	5.768338E-3	6.898695E-3
10/19/2017  17:33:03.250023	7.243768E-1	1.055884E-2	3.882225E-3	3.032896E-3	2.519413E-3	1.628067E-3	2.430239E-3	1.366040E-3
10/19/2017  17:33:03.251023	2.685230E-1	5.026430E-3	2.725046E-3	2.582602E-3	6.277255E-3	1.186721E-3	3.995626E-4	1.385151E-3
10/19/2017  17:33:03.252023	5.153694E-1	3.451522E-3	6.892827E-3	4.381886E-3	2.206915E-3	9.645472E-3	1.902665E-3	3.169417E-3
10/19/2017  17:33:03.253023	9.751166E-1	1.160169E-2	1.603153E-3	3.337077E-3	5.167455E-3	4.486453E-3	8.396110E-4	2.338146E-3
10/19/2017  17:33:03.254023	8.933103E-1	4.000754E-3	3.324638E-3	8.364349E-3	3.757899E-3	1.027228E-2	4.932158E-3	1.887294E-3
10/19/2017  17:33:03.255023	1.453641E-1	1.127505E-2	6.399962E-3	9.533361E-3	1.258471E-2	3.193124E-3	5.307428E-3	7.159269E-3
10/19/2017  17:33:03.256023	1.857512E-3	7.804359E-3	4.476097E-3	4.713296E-3	3.621596E-5	2.042708E-3	3.818635E-3	8.250789E-3
10/19/2017  17:33:03.257023	6.629183E-1	8.298276E-3	1.008853E-2	7.631436E-3	1.997603E-2	5.713150E-3	3.907556E-3	6.021803E-3
10/19/2017  17:33:03.258023	1.375490E+0	2.485012E-3	6.794606E-4	1.059421E-3	5.536533E-3	7.039406E-3	2.823891E-3	2.360726E-3
10/19/2017  17:33:03.259023	2.100115E+0	4.997452E-3	6.144802E-3	7.073465E-3	1.936099E-2	1.349932E-3	2.409665E-3	4.006315E-3
								
10/19/2017  17:33:03.260023	5.488476E-1	5.855940E-3	2.173722E-3	1.054834E-2	4.044427E-3	5.159498E-3	1.761452E-3	5.761060E-3
10/19/2017  17:33:03.261023	2.334760E+0	4.592568E-3	8.063004E-3	5.487500E-3	2.075899E-2	3.152140E-3	3.100306E-3	1.706095E-3
10/19/2017  17:33:03.262023	6.953086E-1	3.279050E-3	5.366486E-3	4.905354E-3	2.781706E-3	9.021475E-3	2.138775E-3	7.815355E-3
