Parameters: 	Upper Cutoff: : 500	Lower Cutoff: : 20	Sample Rate (HZ)1000	Frames Per Second: 30	Display Window Size (S)50	MVC Window Size (s): 50	Seconds To Acquire MVC: 3	Display Channel: 0
waveform	[0]	[1]	[2]	[3]	[4]	[5]	[6]	[7]
t0	10/19/2017  17:32:24.587639	10/19/2017  17:32:24.587639	10/19/2017  17:32:24.587639	10/19/2017  17:32:24.587639	10/19/2017  17:32:24.587639	10/19/2017  17:32:24.587639	10/19/2017  17:32:24.587639	10/19/2017  17:32:24.587639
delta t	0.001000	0.001000	0.001000	0.001000	0.001000	0.001000	0.001000	0.001000

time	Y[0]	Y[1]	Y[2]	Y[3]	Y[4]	Y[5]	Y[6]	Y[7]
10/19/2017  17:32:24.564716	5.604998E-1	3.449549E-3	7.154176E-3	4.052226E-4	3.300709E-3	3.706214E-3	5.467619E-3	5.451787E-3
10/19/2017  17:32:24.565716	6.103622E-1	1.562231E-2	8.202487E-4	2.077554E-3	8.776673E-3	2.765335E-3	5.774511E-4	3.601875E-3
10/19/2017  17:32:24.566716	3.666210E-1	4.410823E-3	5.378505E-4	8.104323E-3	2.207342E-4	1.980375E-3	2.768419E-3	2.078605E-3
10/19/2017  17:32:24.567716	8.237934E-1	1.409379E-3	3.026705E-4	9.537924E-3	6.686747E-3	8.241743E-4	2.077776E-3	1.210388E-2
10/19/2017  17:32:24.568716	6.323166E-1	5.098001E-3	2.049457E-3	6.276471E-3	4.127224E-3	7.114129E-3	1.491789E-3	6.667468E-3
10/19/2017  17:32:24.569716	4.611331E-1	3.446201E-3	7.143230E-3	2.064985E-3	3.092032E-3	2.654692E-3	7.630078E-3	6.209962E-3
10/19/2017  17:32:24.570716	1.051327E-1	3.013804E-3	1.701202E-3	1.014157E-2	4.951611E-5	3.588809E-3	3.426738E-3	4.429598E-3
10/19/2017  17:32:24.571716	1.186934E-1	4.759713E-3	5.861323E-3	3.480395E-4	4.305155E-3	8.921899E-3	4.779268E-3	2.948617E-3
10/19/2017  17:32:24.572716	1.748037E-1	1.502076E-3	6.442346E-3	4.035942E-3	5.750103E-3	1.849217E-3	1.223525E-3	4.740264E-3
10/19/2017  17:32:24.573716	2.233403E-1	7.380272E-3	7.366429E-5	1.299414E-2	1.915421E-3	2.997736E-3	7.873474E-3	1.222443E-2
10/19/2017  17:32:24.574716	1.628905E-1	4.655802E-4	2.383098E-3	3.383001E-3	5.269023E-3	7.945726E-3	1.109096E-3	2.468792E-4
10/19/2017  17:32:24.575716	2.019867E-1	1.320533E-2	1.907078E-3	2.035750E-3	8.037318E-3	1.052755E-2	6.949516E-3	4.956072E-3
10/19/2017  17:32:24.576716	1.281076E-1	3.025666E-3	4.985971E-3	9.862564E-3	9.839215E-3	1.479243E-2	4.314401E-3	4.645868E-4
10/19/2017  17:32:24.577716	7.654044E-2	6.626659E-3	1.057640E-3	2.872484E-3	1.516888E-3	5.523742E-5	7.964358E-3	6.461188E-3
10/19/2017  17:32:24.578716	3.064823E-1	3.412076E-4	4.016881E-3	8.498754E-3	9.606447E-4	4.753045E-5	5.328894E-4	6.103981E-3
10/19/2017  17:32:24.579716	2.661410E-1	6.351667E-3	1.183814E-2	8.386142E-4	4.829749E-3	2.043377E-3	4.455112E-3	5.317561E-3
10/19/2017  17:32:24.580716	3.262551E-1	6.540956E-3	1.807358E-3	5.418105E-3	1.287905E-3	3.020134E-3	1.580643E-3	4.759818E-3
10/19/2017  17:32:24.581716	6.352407E-2	1.494437E-4	1.632671E-2	2.030459E-3	9.996142E-3	2.206240E-3	5.884976E-3	9.800222E-5
10/19/2017  17:32:24.582716	9.049338E-2	7.185887E-3	1.600721E-3	6.951958E-3	5.000423E-3	4.972598E-3	4.414174E-3	7.979776E-4
10/19/2017  17:32:24.583716	5.475465E-2	7.660093E-3	2.310372E-2	6.384391E-3	3.174496E-3	5.606518E-3	1.169708E-3	7.954549E-3
10/19/2017  17:32:24.584716	3.058040E-2	3.357446E-3	3.530533E-3	4.937198E-3	2.868494E-4	7.157342E-3	3.479129E-3	6.321634E-3
10/19/2017  17:32:24.585716	2.832604E-2	4.210311E-3	7.493651E-3	1.530478E-3	6.111389E-3	9.550288E-3	1.715989E-4	3.753038E-3
10/19/2017  17:32:24.586716	2.638076E-2	7.304089E-3	5.729676E-3	5.304521E-3	4.162021E-4	2.146178E-3	4.406430E-3	2.136424E-3
10/19/2017  17:32:24.587716	1.043312E-1	1.624707E-3	1.040765E-4	8.357681E-4	8.192008E-4	1.051622E-2	3.264413E-3	8.459445E-3
10/19/2017  17:32:24.588716	8.302281E-2	5.862490E-3	2.133200E-3	5.245045E-3	9.775563E-3	7.662401E-3	4.331167E-3	3.988045E-3
10/19/2017  17:32:24.589716	1.563514E-2	4.278408E-3	7.313193E-3	3.872583E-3	7.996891E-3	1.174645E-2	7.639004E-3	5.919852E-3
10/19/2017  17:32:24.590716	4.912773E-2	2.317700E-2	2.980377E-3	1.458032E-2	3.090671E-3	3.182810E-3	1.384952E-3	2.017030E-3
10/19/2017  17:32:24.591716	4.265332E-2	5.622849E-3	2.990363E-4	3.064107E-3	4.961504E-3	3.076214E-3	1.390567E-3	8.725331E-4
10/19/2017  17:32:24.592716	1.564260E-1	4.571400E-3	5.173165E-4	1.350970E-2	1.274308E-2	2.932409E-3	7.854219E-4	2.901163E-3
10/19/2017  17:32:24.593716	2.302729E-1	3.641732E-3	1.478442E-3	1.183874E-3	2.625881E-3	7.075156E-3	2.041207E-3	4.426747E-3
10/19/2017  17:32:24.594716	5.656483E-2	6.673298E-4	1.505820E-3	9.266994E-4	2.638409E-3	5.459604E-3	2.449524E-3	5.590712E-3
10/19/2017  17:32:24.595716	9.827239E-2	3.651266E-3	5.780199E-3	1.444709E-3	2.321856E-3	8.380068E-3	3.103823E-3	4.745599E-3
10/19/2017  17:32:24.596716	1.267061E-1	4.218347E-3	6.453090E-3	7.733851E-3	1.008712E-2	1.449869E-3	4.845271E-3	3.362287E-3
								
10/19/2017  17:32:24.597716	8.642860E-2	5.391880E-3	6.322233E-3	1.192931E-2	2.150127E-3	7.960107E-3	5.903769E-3	4.252760E-3
10/19/2017  17:32:24.598716	9.275943E-2	4.883822E-4	2.278712E-3	2.560300E-3	1.093772E-2	1.442653E-3	4.389476E-3	9.526206E-3
10/19/2017  17:32:24.599716	1.824130E-1	4.712887E-3	5.067973E-3	1.075188E-2	1.667484E-3	9.786035E-3	8.101827E-4	1.110535E-4
10/19/2017  17:32:24.600716	4.760761E-1	5.409920E-3	7.970760E-3	1.115715E-3	5.058322E-3	1.277559E-4	8.287797E-3	9.271596E-3
10/19/2017  17:32:24.601716	1.660711E-1	3.811040E-3	3.286042E-3	9.788041E-4	3.346528E-3	1.119657E-2	3.663366E-3	6.092469E-3
10/19/2017  17:32:24.602716	3.372710E-1	8.332497E-3	4.764811E-4	8.422202E-4	1.144551E-2	5.658289E-4	8.497820E-3	4.757685E-3
10/19/2017  17:32:24.603716	8.594655E-1	1.600012E-3	2.779468E-3	5.772159E-3	5.516749E-4	2.529113E-3	1.783970E-3	3.768279E-3
10/19/2017  17:32:24.604716	6.160217E-1	9.800514E-3	6.465508E-3	2.706085E-3	7.017973E-3	1.657587E-3	5.286116E-3	1.399284E-3
10/19/2017  17:32:24.605716	2.585151E-1	4.039173E-3	4.483950E-3	6.652345E-5	5.354325E-4	1.224713E-3	3.649303E-3	7.183054E-3
10/19/2017  17:32:24.606716	3.168193E-2	3.423289E-3	1.400651E-3	2.499712E-3	6.333832E-3	9.741193E-3	8.516722E-3	4.490581E-3
10/19/2017  17:32:24.607716	2.877603E-1	6.496880E-3	5.621261E-3	6.653047E-3	1.719357E-4	6.161701E-3	3.961429E-3	6.367212E-3
10/19/2017  17:32:24.608716	2.727555E-1	4.727392E-3	1.966133E-2	2.115381E-3	8.612518E-3	6.920492E-5	1.661581E-3	9.652981E-3
10/19/2017  17:32:24.609716	1.955909E-1	3.232618E-3	4.114741E-3	1.641062E-2	1.554888E-3	2.151805E-3	1.327578E-3	8.281183E-4
10/19/2017  17:32:24.610716	2.666896E-2	6.647681E-3	6.005681E-3	1.237108E-3	1.461536E-3	1.156612E-2	1.029156E-3	7.410474E-3
10/19/2017  17:32:24.611716	1.945203E-1	6.995915E-3	1.147085E-2	9.478973E-4	5.758546E-3	2.844996E-3	2.922339E-3	1.020991E-3
10/19/2017  17:32:24.612716	1.355174E-2	3.880832E-3	1.944643E-3	3.603982E-3	2.110612E-3	1.096302E-2	1.755878E-4	1.482703E-3
10/19/2017  17:32:24.613716	3.397374E-2	5.079646E-3	5.788518E-3	2.367822E-3	4.943389E-3	9.614193E-4	6.214269E-3	3.242355E-3
10/19/2017  17:32:24.614716	1.684076E-1	9.396730E-3	3.731849E-4	3.486920E-3	3.188877E-3	1.815555E-2	2.918422E-4	1.079397E-2
10/19/2017  17:32:24.615716	1.226646E-1	6.525964E-3	3.807240E-3	1.536648E-2	1.322992E-2	5.415807E-4	7.167755E-3	9.832524E-4
10/19/2017  17:32:24.616716	2.274748E-2	4.758067E-3	4.433272E-3	1.856153E-4	2.511177E-3	9.723418E-3	3.191544E-3	3.985913E-3
10/19/2017  17:32:24.617716	5.204894E-2	3.261231E-3	8.347358E-3	4.888810E-5	1.404369E-2	7.296180E-3	6.279062E-3	3.076510E-3
10/19/2017  17:32:24.618716	1.786747E-1	6.623891E-3	4.272948E-3	6.532837E-3	5.890841E-3	1.255226E-3	2.002237E-3	6.356035E-3
10/19/2017  17:32:24.619716	3.570441E-2	6.978928E-3	5.295220E-3	4.476881E-3	6.245009E-3	8.853783E-4	5.521720E-3	9.984889E-5
10/19/2017  17:32:24.620716	1.588745E-1	4.270619E-4	1.098547E-3	7.072200E-3	8.955805E-3	1.577213E-3	4.243441E-3	6.919039E-3
10/19/2017  17:32:24.621716	3.426248E-1	4.338366E-3	4.193111E-3	4.412003E-3	2.128821E-3	3.272867E-3	3.333897E-3	1.367105E-2
10/19/2017  17:32:24.622716	2.502298E-1	3.274538E-3	5.706619E-3	1.039288E-2	1.352217E-3	4.306920E-3	2.154452E-3	8.042246E-3
10/19/2017  17:32:24.623716	1.243484E-1	4.111738E-3	4.410607E-3	5.174090E-3	3.608637E-3	7.422213E-3	9.721805E-4	2.120648E-2
10/19/2017  17:32:24.624716	8.563618E-2	5.998061E-4	1.129870E-3	7.467252E-3	7.022261E-3	7.954819E-3	1.183308E-2	6.986456E-3
10/19/2017  17:32:24.625716	2.922074E-2	4.132219E-3	1.281857E-3	4.250766E-3	3.839903E-3	7.568927E-4	2.471257E-3	2.052124E-2
10/19/2017  17:32:24.626716	2.415700E-2	5.201175E-3	2.957304E-3	3.943680E-4	1.474201E-3	5.241415E-4	4.579338E-3	3.080288E-3
10/19/2017  17:32:24.627716	6.254929E-2	1.404721E-3	1.325976E-2	7.149260E-3	3.441768E-3	3.981095E-3	3.532846E-3	4.887958E-3
10/19/2017  17:32:24.628716	1.950791E-2	7.894129E-3	3.760475E-3	2.813176E-3	1.815326E-3	5.920916E-3	4.931870E-3	4.578112E-4
10/19/2017  17:32:24.629716	3.756874E-2	5.605277E-3	7.237351E-3	5.312698E-3	3.339824E-3	8.468362E-3	2.898576E-3	7.685508E-5
								
10/19/2017  17:32:24.630716	6.765234E-2	2.791971E-3	3.537339E-3	6.641751E-3	2.232164E-3	5.220433E-3	4.558521E-3	3.810490E-3
10/19/2017  17:32:24.631716	7.028532E-2	4.416236E-3	1.112734E-2	7.310797E-3	2.484247E-3	4.558428E-3	3.215125E-3	4.416948E-3
10/19/2017  17:32:24.632716	5.333958E-3	3.242118E-3	5.552956E-3	9.616651E-4	9.410227E-3	1.594697E-3	6.449724E-3	1.235550E-2
10/19/2017  17:32:24.633716	3.208264E-2	4.283583E-3	8.264758E-5	1.528421E-3	4.078214E-3	1.127619E-2	6.303296E-3	2.600293E-4
10/19/2017  17:32:24.634716	3.194233E-2	5.978610E-3	9.140568E-3	5.352944E-3	7.105863E-3	1.241764E-2	4.403448E-3	1.987626E-3
10/19/2017  17:32:24.635716	1.100198E-1	4.478775E-3	1.487164E-4	3.532699E-3	2.748477E-4	9.086392E-4	1.509532E-3	3.514627E-3
10/19/2017  17:32:24.636716	1.361141E-1	1.125966E-3	4.168062E-3	1.988875E-3	9.030533E-3	1.252336E-3	1.417584E-3	8.509969E-3
10/19/2017  17:32:24.637716	3.861882E-1	5.119716E-3	1.566812E-3	1.226235E-2	8.454333E-3	6.831437E-4	8.405623E-4	3.825744E-3
10/19/2017  17:32:24.638716	5.799355E-2	1.166853E-2	5.642851E-3	4.746905E-3	1.151840E-3	6.621636E-3	2.396891E-3	4.066758E-3
10/19/2017  17:32:24.639716	1.708245E-1	3.781198E-3	4.002899E-3	5.167653E-3	2.046974E-3	3.513013E-3	3.104829E-3	7.432349E-3
10/19/2017  17:32:24.640716	8.836016E-2	1.291035E-2	1.033672E-2	1.230526E-3	4.308106E-3	1.310925E-2	6.962296E-3	5.201673E-3
10/19/2017  17:32:24.641716	4.084465E-2	1.537094E-3	2.913585E-3	1.713357E-3	1.010497E-2	1.436687E-3	7.280073E-3	9.617274E-3
10/19/2017  17:32:24.642716	4.474871E-1	3.246665E-3	4.748747E-3	5.968483E-3	1.430388E-2	3.244370E-3	7.942306E-3	6.907636E-3
10/19/2017  17:32:24.643716	5.402631E-1	6.802893E-5	1.006881E-2	8.483965E-3	3.415307E-3	2.051080E-3	5.604109E-3	8.333572E-3
10/19/2017  17:32:24.644716	3.683074E-1	4.387511E-3	3.850620E-3	3.149040E-3	1.605687E-2	1.005932E-2	1.489548E-3	8.151708E-3
10/19/2017  17:32:24.645716	5.255514E-2	9.146798E-4	7.627624E-4	9.279527E-3	6.204758E-4	4.514107E-3	3.731383E-3	1.002653E-3
10/19/2017  17:32:24.646716	1.829125E-1	1.643411E-3	2.840237E-3	1.819302E-3	4.584967E-3	4.094193E-3	1.382036E-2	1.103597E-3
10/19/2017  17:32:24.647716	1.593593E-1	5.582984E-3	6.583180E-3	1.066415E-3	6.842600E-4	1.020086E-2	1.136782E-3	9.787943E-3
10/19/2017  17:32:24.648716	1.406423E+0	1.686975E-3	8.957597E-5	3.870625E-3	4.387501E-3	9.111308E-4	5.419000E-3	9.120075E-3
10/19/2017  17:32:24.649716	6.384479E-1	5.529209E-3	2.463857E-3	1.590768E-2	2.916648E-3	1.097561E-2	3.505690E-4	9.084984E-3
10/19/2017  17:32:24.650716	1.105554E+0	1.263806E-2	2.059693E-3	4.263268E-3	2.840733E-3	3.948754E-3	1.559530E-4	4.546250E-3
10/19/2017  17:32:24.651716	1.567137E+0	6.598048E-3	1.695536E-3	5.680540E-3	2.595227E-3	1.029469E-2	1.039272E-5	1.077137E-3
10/19/2017  17:32:24.652716	7.487521E-1	1.155619E-2	7.902720E-4	2.152842E-3	1.938983E-4	6.471179E-4	1.501526E-4	7.549981E-4
10/19/2017  17:32:24.653716	5.469190E-1	4.823088E-3	1.787709E-3	6.948654E-3	9.328530E-3	2.350772E-3	4.050096E-3	4.798825E-4
10/19/2017  17:32:24.654716	8.470121E-1	5.608913E-3	7.225899E-3	8.448838E-3	3.665058E-4	1.344961E-4	1.773544E-3	8.385818E-3
10/19/2017  17:32:24.655716	4.819468E-1	1.584870E-3	8.235177E-3	6.212566E-3	3.924058E-3	1.420953E-3	7.023191E-3	2.889816E-3
10/19/2017  17:32:24.656716	1.906674E-1	1.417131E-3	8.211292E-3	2.153249E-3	4.008001E-3	4.583710E-3	4.278513E-3	1.089270E-2
10/19/2017  17:32:24.657716	4.801332E-2	1.002238E-2	2.995747E-3	8.909371E-4	9.033468E-4	6.366055E-3	3.647747E-3	3.284410E-3
10/19/2017  17:32:24.658716	2.862809E-1	6.579239E-4	8.794595E-3	3.068327E-3	7.293870E-3	1.617809E-2	9.130573E-4	2.577663E-3
10/19/2017  17:32:24.659716	7.453672E-1	2.505136E-3	3.890514E-4	1.935772E-4	1.427501E-3	5.547887E-3	5.411089E-3	1.968781E-3
10/19/2017  17:32:24.660716	9.867136E-1	3.697219E-3	6.998484E-3	6.767798E-3	5.496664E-3	2.798712E-3	2.364284E-3	5.026488E-3
10/19/2017  17:32:24.661716	7.094844E-1	8.602751E-3	1.522175E-3	6.866330E-3	2.638735E-3	4.355394E-3	9.423987E-3	1.181746E-3
10/19/2017  17:32:24.662716	4.519774E-1	2.333903E-3	5.439682E-3	2.053108E-3	1.053828E-2	7.410288E-3	2.375463E-3	8.146550E-3
								
10/19/2017  17:32:24.663716	7.342062E-2	1.581676E-2	6.301355E-4	1.274761E-2	1.596972E-3	1.021050E-2	2.834257E-3	5.870594E-3
10/19/2017  17:32:24.664716	1.755639E-1	6.390274E-3	7.143408E-3	4.756676E-3	8.148115E-3	8.923196E-4	2.166506E-3	4.685982E-3
10/19/2017  17:32:24.665716	2.463897E-1	1.780250E-2	7.024669E-4	1.237026E-3	1.035904E-2	7.986912E-3	2.711444E-3	1.296630E-3
10/19/2017  17:32:24.666716	1.460348E-1	5.757592E-3	6.148528E-3	5.526671E-3	5.841292E-3	5.460773E-3	1.763607E-3	9.612916E-4
10/19/2017  17:32:24.667716	4.400880E-4	1.404194E-2	2.147779E-3	4.582092E-3	5.440768E-5	8.470746E-3	5.284260E-3	3.640106E-3
10/19/2017  17:32:24.668716	3.936959E-1	8.282226E-3	3.699911E-3	3.488011E-3	6.453876E-3	3.799853E-3	5.418201E-3	4.619834E-3
10/19/2017  17:32:24.669716	3.439040E-1	2.710968E-3	2.471688E-3	5.163378E-4	2.089431E-3	4.053738E-3	4.294830E-3	7.697328E-4
10/19/2017  17:32:24.670716	1.547450E-1	1.870706E-3	5.035605E-3	3.795924E-3	1.189558E-3	7.361564E-3	1.162744E-3	4.235665E-3
10/19/2017  17:32:24.671716	2.809914E-2	5.490350E-3	2.721666E-3	1.933074E-3	5.703912E-3	7.432907E-4	1.124963E-3	3.361620E-3
10/19/2017  17:32:24.672716	2.368698E-2	8.125399E-4	2.639087E-3	5.992137E-3	8.723020E-3	4.102805E-3	1.616176E-3	4.754719E-3
10/19/2017  17:32:24.673716	1.641804E-1	7.505634E-3	7.771328E-5	6.475393E-3	4.649432E-3	5.286849E-3	1.378702E-3	1.604462E-2
10/19/2017  17:32:24.674716	4.714654E-1	3.362925E-3	6.330159E-3	8.615323E-3	1.091521E-3	4.873062E-3	1.194733E-2	6.438116E-3
10/19/2017  17:32:24.675716	3.848401E-1	2.190869E-4	2.450680E-3	6.125549E-3	3.685658E-3	7.623405E-3	2.583458E-3	9.426074E-3
10/19/2017  17:32:24.676716	2.898719E-1	2.070062E-3	4.384738E-3	4.619543E-3	3.866271E-3	7.042478E-3	1.296258E-2	3.669695E-4
10/19/2017  17:32:24.677716	8.507028E-1	5.794046E-3	3.446787E-3	3.538440E-3	4.752616E-4	4.579515E-3	4.247622E-4	1.861569E-3
10/19/2017  17:32:24.678716	9.133687E-1	4.745655E-3	4.676642E-4	4.570351E-4	1.993029E-3	6.357795E-3	4.298412E-3	9.323363E-4
10/19/2017  17:32:24.679716	5.396168E-1	1.330061E-3	9.104508E-3	2.549487E-3	1.516674E-3	3.105743E-3	3.936312E-3	5.056803E-3
10/19/2017  17:32:24.680716	3.660132E-1	7.672128E-3	2.388678E-3	6.104261E-3	3.261322E-3	6.802278E-4	5.378795E-3	1.302007E-3
10/19/2017  17:32:24.681716	5.170412E-1	3.473248E-3	4.107353E-3	4.048885E-3	2.270708E-5	1.190559E-2	1.153120E-3	6.656422E-4
10/19/2017  17:32:24.682716	1.210437E-1	1.135380E-2	1.302436E-3	4.134623E-3	4.499625E-3	4.355385E-3	3.701766E-3	6.336481E-3
10/19/2017  17:32:24.683716	3.306747E-1	1.380447E-3	1.356472E-3	9.254765E-4	1.075476E-3	1.597625E-2	1.188742E-2	3.213454E-4
10/19/2017  17:32:24.684716	2.866633E-2	8.067652E-3	3.224206E-3	1.988035E-3	7.221118E-3	8.828247E-3	6.461094E-3	1.851868E-3
10/19/2017  17:32:24.685716	5.036805E-2	3.740684E-3	2.267624E-3	1.266712E-2	3.843716E-3	1.124936E-2	7.348169E-5	5.472270E-3
10/19/2017  17:32:24.686716	1.532691E-1	1.464623E-2	6.902709E-4	6.813127E-3	9.490085E-3	2.595729E-3	4.058445E-3	8.413272E-4
10/19/2017  17:32:24.687716	8.015668E-1	3.040428E-3	6.377347E-4	4.238375E-3	1.292616E-4	2.686570E-3	1.944881E-3	3.236377E-3
10/19/2017  17:32:24.688716	8.509017E-1	1.236394E-2	5.772226E-4	1.421210E-2	2.007845E-3	6.563143E-3	4.547314E-3	7.010174E-3
10/19/2017  17:32:24.689716	3.590194E-1	7.416765E-3	3.807912E-3	5.168798E-3	5.423398E-3	8.696397E-3	1.847965E-3	7.844356E-3
10/19/2017  17:32:24.690716	6.246791E-2	1.278328E-2	1.859577E-3	1.457038E-2	1.271899E-2	6.360497E-3	2.133884E-3	1.268574E-3
10/19/2017  17:32:24.691716	7.869835E-2	1.009906E-3	3.710889E-3	5.289668E-3	1.074766E-2	2.224746E-3	6.633625E-3	1.331550E-3
10/19/2017  17:32:24.692716	1.879667E-1	1.151181E-3	2.717880E-3	1.076426E-2	3.362126E-3	7.353323E-3	1.394385E-2	1.347265E-3
10/19/2017  17:32:24.693716	3.159726E-1	3.091064E-3	2.451268E-3	3.042771E-3	3.655810E-5	9.606386E-3	2.993483E-3	7.798568E-3
10/19/2017  17:32:24.694716	1.474942E-1	6.977688E-3	1.752615E-3	1.286450E-4	4.549089E-3	4.347829E-3	6.427404E-3	8.593073E-4
10/19/2017  17:32:24.695716	4.214889E-2	7.453130E-3	7.466129E-3	2.423510E-3	5.322736E-3	7.757241E-3	2.195588E-3	4.903631E-3
								
10/19/2017  17:32:24.696716	7.674395E-2	1.190353E-3	1.372894E-3	2.503588E-3	2.979455E-3	9.236805E-4	2.463729E-3	5.428820E-3
10/19/2017  17:32:24.697716	7.546451E-2	3.408287E-3	9.343023E-4	1.024295E-2	4.518002E-3	1.501831E-3	9.421053E-3	1.173575E-2
10/19/2017  17:32:24.698716	1.350945E-2	2.213239E-3	4.680679E-3	6.299235E-3	1.062854E-3	1.017667E-3	2.913424E-4	6.298456E-3
10/19/2017  17:32:24.699716	8.739682E-2	3.112764E-3	3.680320E-3	2.013181E-2	1.461012E-3	7.089224E-3	4.151524E-3	2.250476E-3
10/19/2017  17:32:24.700716	7.358735E-2	1.781453E-3	9.580232E-3	5.401335E-3	3.278828E-3	1.843815E-3	1.464020E-3	2.927680E-4
10/19/2017  17:32:24.701716	5.733762E-2	1.299801E-3	6.026230E-3	2.347828E-3	2.208502E-3	8.230704E-3	7.595366E-3	8.548730E-5
10/19/2017  17:32:24.702716	9.807058E-2	2.965494E-3	4.012858E-3	1.304143E-3	3.482846E-3	5.994829E-3	5.165132E-3	3.936640E-4
10/19/2017  17:32:24.703716	4.392235E-2	7.108047E-3	4.137232E-3	4.768783E-3	8.771783E-3	6.256627E-3	1.413536E-2	3.678669E-3
10/19/2017  17:32:24.704716	2.718570E-2	3.292849E-3	1.417259E-2	3.817038E-3	2.260986E-3	3.579931E-4	3.683006E-3	1.087638E-2
10/19/2017  17:32:24.705716	1.431737E-1	6.050227E-3	8.501148E-4	5.568060E-3	7.238523E-4	5.159149E-3	1.048647E-2	7.940913E-3
10/19/2017  17:32:24.706716	1.271462E-2	4.805855E-3	1.597685E-2	4.460199E-3	7.175729E-3	4.526538E-3	1.382749E-3	1.141480E-3
10/19/2017  17:32:24.707716	8.280540E-2	8.125485E-3	2.373680E-3	5.644712E-3	1.231688E-2	6.023092E-3	1.267515E-3	1.673015E-3
10/19/2017  17:32:24.708716	6.454263E-2	5.839512E-3	1.095578E-3	2.397370E-3	4.146321E-3	6.040096E-3	1.001711E-3	3.648078E-3
10/19/2017  17:32:24.709716	4.685461E-2	1.120026E-2	1.007198E-2	5.611288E-4	1.494680E-2	7.185018E-3	6.071327E-3	2.758947E-3
10/19/2017  17:32:24.710716	4.700533E-5	5.692292E-3	5.301212E-3	6.986677E-3	1.042574E-4	7.788316E-3	1.167611E-4	4.481976E-3
10/19/2017  17:32:24.711716	8.072800E-2	7.239733E-4	4.862142E-3	2.635058E-3	1.095173E-2	7.879254E-3	2.010712E-3	1.308434E-3
10/19/2017  17:32:24.712716	1.718726E-1	7.511891E-3	3.326044E-3	1.361838E-2	9.425253E-4	1.086357E-3	3.438466E-3	1.406331E-2
10/19/2017  17:32:24.713716	3.045309E-1	8.699770E-4	1.089876E-2	7.429120E-3	8.503892E-3	8.213634E-3	4.346132E-3	9.937718E-4
10/19/2017  17:32:24.714716	9.086126E-3	3.765820E-4	5.513894E-3	1.035913E-2	8.441251E-3	1.609732E-3	7.616282E-3	1.715129E-2
10/19/2017  17:32:24.715716	8.077519E-3	2.147072E-3	2.981176E-3	1.839447E-2	2.829206E-3	7.526780E-3	9.872984E-4	3.547968E-3
10/19/2017  17:32:24.716716	4.001178E-1	1.015043E-3	3.762929E-4	2.625665E-3	2.912924E-5	2.943398E-3	3.853292E-3	2.114247E-3
10/19/2017  17:32:24.717716	6.752490E-2	9.744436E-3	5.012117E-3	4.753266E-3	4.122125E-3	9.173072E-3	1.149415E-2	1.804074E-3
10/19/2017  17:32:24.718716	2.877811E-1	4.790124E-3	1.680794E-3	1.045027E-2	4.717434E-3	6.718043E-3	7.282254E-3	1.015181E-2
10/19/2017  17:32:24.719716	2.396086E-2	3.345969E-3	5.086852E-3	1.142821E-3	5.397909E-4	3.990118E-3	1.401840E-2	8.053662E-3
10/19/2017  17:32:24.720716	5.044786E-1	6.929229E-3	9.746313E-3	3.037258E-3	4.733468E-3	9.361660E-3	5.530527E-3	1.375094E-3
10/19/2017  17:32:24.721716	4.535628E-1	3.742632E-3	1.591259E-3	6.111102E-5	1.893160E-3	1.778441E-4	2.670933E-5	9.444854E-3
10/19/2017  17:32:24.722716	1.302910E-1	2.609077E-3	5.446056E-3	1.741934E-2	1.063894E-2	7.084816E-3	4.635387E-3	6.798650E-3
10/19/2017  17:32:24.723716	4.029482E-3	3.805507E-3	1.625034E-3	7.635629E-3	8.282309E-4	3.131131E-3	8.292048E-4	1.390586E-2
10/19/2017  17:32:24.724716	3.756072E-2	2.025139E-3	5.534656E-3	1.889449E-2	2.542178E-3	8.481423E-3	2.552792E-3	1.044637E-3
10/19/2017  17:32:24.725716	1.888742E-1	4.019539E-3	8.282592E-3	8.435109E-3	3.638992E-3	1.318443E-3	5.810939E-3	7.474601E-3
10/19/2017  17:32:24.726716	1.896809E-1	5.307655E-3	3.100160E-3	3.990758E-3	2.263944E-3	3.945790E-3	5.689127E-3	1.176154E-3
10/19/2017  17:32:24.727716	8.349096E-2	4.664003E-4	1.982663E-2	6.111508E-4	6.448500E-3	7.512230E-3	1.414897E-2	8.738986E-4
10/19/2017  17:32:24.728716	8.575548E-2	1.880623E-3	1.449626E-3	1.856740E-3	5.310718E-4	6.221715E-3	1.489020E-2	6.108120E-4
								
10/19/2017  17:32:24.729716	6.857563E-2	7.303779E-3	1.459728E-2	1.392080E-3	4.905903E-3	1.156378E-2	3.716963E-4	2.542819E-3
10/19/2017  17:32:24.730716	1.627312E-2	5.861674E-3	8.298691E-3	9.903083E-4	7.322640E-3	1.947036E-3	5.962364E-4	5.165405E-4
10/19/2017  17:32:24.731716	2.892173E-2	6.457327E-3	9.631097E-4	7.994050E-3	1.515369E-3	2.917868E-3	7.245868E-3	2.717205E-3
10/19/2017  17:32:24.732716	1.014264E-1	1.077879E-4	7.631611E-3	1.032063E-3	7.817397E-3	1.978956E-3	3.375672E-3	6.350756E-3
10/19/2017  17:32:24.733716	2.072423E-1	8.807106E-3	5.630914E-3	1.024168E-3	5.492400E-3	1.821462E-2	4.374540E-3	3.688744E-5
10/19/2017  17:32:24.734716	2.020790E-1	6.190709E-3	2.547844E-3	3.149654E-3	5.131328E-3	1.659587E-3	1.618524E-3	2.370819E-3
10/19/2017  17:32:24.735716	3.898570E-2	3.238722E-4	4.008250E-3	2.384294E-3	3.936390E-3	1.689461E-2	5.905318E-3	1.264385E-2
10/19/2017  17:32:24.736716	2.861133E-1	9.360198E-3	4.869869E-3	2.599551E-3	5.729972E-3	3.628326E-3	2.279309E-3	8.619381E-3
10/19/2017  17:32:24.737716	4.285528E-1	1.806848E-3	9.216157E-4	6.889628E-3	4.917376E-3	2.555837E-3	4.210537E-4	6.291989E-3
10/19/2017  17:32:24.738716	1.985077E-1	1.182901E-2	8.481666E-3	4.306934E-4	4.913579E-3	4.949029E-4	4.492306E-3	2.151866E-3
10/19/2017  17:32:24.739716	7.488846E-2	9.129283E-3	1.928939E-3	2.109369E-3	5.583343E-3	9.151456E-3	3.593449E-3	3.828716E-3
10/19/2017  17:32:24.740716	3.888771E-1	2.235705E-3	5.034797E-3	4.507353E-4	6.547766E-3	1.998075E-3	1.143239E-2	1.614296E-3
10/19/2017  17:32:24.741716	1.360038E-2	4.991119E-3	9.808368E-3	2.073278E-3	6.699834E-3	9.758999E-3	1.439920E-3	3.304118E-3
10/19/2017  17:32:24.742716	5.201431E-1	8.306233E-4	6.683482E-3	5.014093E-4	2.994011E-3	7.006751E-3	1.542175E-3	6.430425E-3
10/19/2017  17:32:24.743716	2.429078E-1	6.799105E-4	1.398096E-2	4.470794E-3	4.112319E-3	6.101341E-3	3.657466E-3	1.928602E-4
10/19/2017  17:32:24.744716	2.404116E-1	9.184195E-3	1.322199E-3	4.929521E-3	2.519132E-3	4.480436E-3	7.199447E-3	2.162518E-3
10/19/2017  17:32:24.745716	7.624579E-1	2.351136E-4	7.880506E-3	3.663294E-3	3.116208E-3	3.375738E-3	7.948263E-4	2.705812E-3
10/19/2017  17:32:24.746716	4.951749E-1	7.037212E-3	1.202354E-3	7.582516E-3	9.239559E-3	2.532861E-4	4.514044E-4	3.915561E-3
10/19/2017  17:32:24.747716	4.144190E-1	5.152550E-3	6.550284E-4	2.521540E-2	1.901785E-3	6.630918E-3	4.146450E-3	8.371799E-3
10/19/2017  17:32:24.748716	3.229408E-1	7.678662E-4	1.489340E-2	2.155456E-3	5.504705E-3	2.271347E-3	3.514826E-3	4.155617E-4
10/19/2017  17:32:24.749716	8.655146E-2	1.459492E-3	3.782869E-3	6.002181E-3	8.282516E-4	1.153899E-3	1.317815E-2	2.404103E-3
10/19/2017  17:32:24.750716	6.421787E-1	1.344441E-3	6.617406E-3	9.533578E-3	7.543559E-3	1.269710E-2	2.090014E-3	5.875901E-3
10/19/2017  17:32:24.751716	3.680179E-1	3.326445E-3	3.068630E-3	3.061394E-3	1.226260E-3	1.346985E-2	4.426323E-3	5.550559E-4
10/19/2017  17:32:24.752716	2.493757E-1	6.774815E-3	1.337700E-2	4.780076E-3	9.418309E-4	4.164820E-4	1.027954E-2	3.040628E-3
10/19/2017  17:32:24.753716	2.942232E-1	8.327056E-3	1.399764E-3	4.980651E-3	5.007702E-3	6.914947E-3	1.053240E-3	2.565219E-3
10/19/2017  17:32:24.754716	1.109041E-1	6.058038E-4	9.689618E-4	5.525575E-3	7.468084E-3	3.171784E-3	2.682068E-3	6.443899E-3
10/19/2017  17:32:24.755716	3.408654E-1	5.480214E-4	6.023159E-3	4.217744E-3	3.149395E-3	3.755397E-3	6.006678E-4	4.008322E-3
10/19/2017  17:32:24.756716	1.463560E-1	4.810442E-3	1.332984E-5	9.564496E-3	4.224615E-3	9.022815E-3	8.008171E-4	4.877329E-3
10/19/2017  17:32:24.757716	3.076367E-1	3.132963E-3	6.527217E-3	6.464168E-3	6.027606E-3	2.764223E-3	5.242740E-3	5.529037E-3
10/19/2017  17:32:24.758716	3.456204E-1	6.552195E-3	4.433086E-3	6.933229E-3	8.815070E-3	6.143270E-3	6.048354E-3	1.062299E-2
10/19/2017  17:32:24.759716	3.080532E-1	1.288977E-2	1.627455E-3	1.417004E-2	6.914262E-3	1.152091E-2	2.015790E-3	2.988520E-3
10/19/2017  17:32:24.760716	5.563592E-1	3.917757E-3	1.027299E-2	2.845990E-3	2.803964E-3	2.164050E-3	9.649515E-3	4.857108E-3
10/19/2017  17:32:24.761716	4.866884E-1	7.439011E-4	7.400112E-3	1.712378E-2	6.766411E-3	2.502073E-3	3.680016E-4	8.176235E-3
								
10/19/2017  17:32:24.762716	6.606167E-2	5.886851E-3	7.991607E-3	3.672444E-3	6.837107E-3	1.418057E-3	4.170004E-3	8.057471E-3
10/19/2017  17:32:24.763716	3.411130E-2	4.188413E-4	5.774507E-3	5.593805E-3	6.524544E-3	5.922869E-3	7.233296E-3	7.516940E-3
10/19/2017  17:32:24.764716	9.865596E-2	4.969332E-3	6.887854E-3	1.858427E-3	5.729793E-4	1.094555E-2	4.752465E-3	1.127766E-3
10/19/2017  17:32:24.765716	3.000393E-1	5.878121E-3	7.050188E-3	1.019906E-2	1.428671E-3	5.396145E-3	5.950046E-3	9.419413E-3
10/19/2017  17:32:24.766716	5.192184E-1	2.169830E-4	3.342377E-4	7.649726E-3	1.073292E-2	1.072952E-3	4.819864E-3	6.660300E-3
10/19/2017  17:32:24.767716	2.174139E-1	4.612337E-3	2.454934E-4	7.497364E-3	4.033267E-3	3.603712E-3	4.828937E-4	1.149477E-2
10/19/2017  17:32:24.768716	4.826116E-2	1.097023E-3	7.025784E-4	7.257715E-3	9.290896E-4	1.140257E-3	2.081031E-3	9.295153E-3
10/19/2017  17:32:24.769716	7.536086E-2	5.805967E-3	7.529089E-3	1.920605E-3	4.235829E-3	1.127403E-4	3.383770E-3	4.413731E-3
10/19/2017  17:32:24.770716	1.391436E-1	1.870041E-3	1.334719E-3	1.712550E-2	5.630113E-3	7.187453E-3	7.356788E-4	1.487683E-3
10/19/2017  17:32:24.771716	7.602072E-2	1.072308E-3	9.648789E-3	7.929968E-4	8.551448E-3	1.387819E-3	9.621746E-3	1.433551E-2
10/19/2017  17:32:24.772716	2.922067E-1	9.642332E-3	6.677011E-3	3.590690E-3	1.587784E-3	7.992437E-3	1.667487E-3	5.658429E-3
10/19/2017  17:32:24.773716	4.099664E-2	2.421734E-3	9.528177E-3	5.863211E-5	3.542870E-3	5.390523E-4	3.247062E-3	7.369425E-3
10/19/2017  17:32:24.774716	1.289401E-2	7.536595E-4	2.512747E-3	3.801636E-4	6.260606E-4	1.993844E-3	1.087678E-2	7.820553E-3
10/19/2017  17:32:24.775716	1.712536E-2	9.509600E-3	6.991967E-3	3.585964E-3	1.466332E-3	9.212335E-3	3.275866E-3	1.323124E-3
10/19/2017  17:32:24.776716	5.869395E-2	2.752999E-4	5.673186E-4	4.589957E-3	5.028592E-3	2.599209E-3	1.317610E-2	8.938548E-4
10/19/2017  17:32:24.777716	9.569172E-2	1.071621E-2	1.272702E-2	6.011715E-3	8.141864E-4	1.534532E-2	3.611983E-3	1.627944E-3
10/19/2017  17:32:24.778716	1.790857E-1	1.297091E-3	4.414229E-3	3.995417E-3	4.494270E-3	2.237825E-3	4.742619E-3	1.222457E-3
10/19/2017  17:32:24.779716	4.613464E-1	7.757988E-3	8.314605E-3	2.332174E-3	6.014736E-3	5.176593E-3	1.154731E-3	1.277675E-3
10/19/2017  17:32:24.780716	2.815481E-1	3.044441E-3	8.515808E-3	1.192053E-3	1.772881E-3	1.672083E-3	5.410519E-3	1.304776E-3
10/19/2017  17:32:24.781716	2.274726E-1	4.205257E-3	6.132478E-3	1.237964E-2	7.663934E-4	3.405316E-3	3.374242E-3	7.427853E-3
10/19/2017  17:32:24.782716	4.753569E-2	8.119804E-3	8.831758E-3	6.941056E-3	8.695807E-3	1.853234E-4	2.625256E-3	3.626848E-3
10/19/2017  17:32:24.783716	4.752249E-1	3.678735E-3	1.926708E-3	1.619170E-3	8.649876E-3	6.490880E-3	6.891992E-3	5.827113E-3
10/19/2017  17:32:24.784716	5.686343E-2	1.049654E-2	3.153044E-3	9.886414E-3	6.931372E-3	2.081519E-3	5.381796E-3	1.545449E-3
10/19/2017  17:32:24.785716	2.471548E-2	5.678360E-3	6.683712E-3	1.902619E-3	2.695872E-3	3.383466E-3	2.401156E-3	8.129099E-3
10/19/2017  17:32:24.786716	2.099711E-2	8.436383E-3	1.882038E-3	1.680620E-2	9.141540E-3	9.355878E-3	1.402928E-3	2.513968E-3
10/19/2017  17:32:24.787716	2.321838E-1	5.098009E-3	1.013566E-2	1.336149E-3	6.421465E-3	4.599213E-3	1.235299E-2	7.228721E-3
10/19/2017  17:32:24.788716	4.190477E-1	4.785393E-3	2.642284E-3	1.439021E-2	8.853168E-3	3.377674E-3	1.090430E-2	9.717685E-4
10/19/2017  17:32:24.789716	4.037991E-1	8.553725E-4	7.234746E-3	4.932514E-3	2.155769E-3	2.518370E-3	5.791882E-3	5.050070E-3
10/19/2017  17:32:24.790716	2.441647E-1	4.219387E-3	5.408556E-3	1.333653E-3	8.593820E-4	4.674335E-3	1.329419E-2	1.258197E-3
10/19/2017  17:32:24.791716	5.765903E-2	5.563011E-3	2.626637E-3	3.495044E-3	3.018551E-3	7.456212E-3	5.624956E-3	5.882416E-3
10/19/2017  17:32:24.792716	4.975867E-2	1.782378E-4	3.478331E-4	1.817146E-3	4.199270E-3	3.886376E-3	8.191090E-3	2.170239E-3
10/19/2017  17:32:24.793716	8.892230E-2	6.450965E-3	6.797579E-3	3.388302E-3	3.803126E-3	9.777615E-3	7.637765E-3	7.847201E-3
10/19/2017  17:32:24.794716	1.517179E-1	1.472326E-4	2.479692E-3	2.138529E-3	2.925175E-3	3.663602E-3	5.779410E-3	2.895727E-3
								
10/19/2017  17:32:24.795716	1.982235E-1	9.248356E-3	5.094245E-3	6.045078E-3	7.591091E-6	1.099093E-2	4.440020E-3	7.347819E-3
10/19/2017  17:32:24.796716	4.139228E-2	4.028483E-3	4.565671E-4	4.372217E-3	7.660227E-5	3.721776E-3	3.521587E-3	7.973250E-3
10/19/2017  17:32:24.797716	2.741525E-1	4.412325E-4	6.385203E-3	2.073631E-2	6.361778E-3	1.205956E-2	3.839878E-3	5.445811E-4
10/19/2017  17:32:24.798716	2.619138E-1	8.656893E-3	6.705061E-3	7.534155E-3	1.336603E-4	1.875413E-3	3.997739E-3	1.998309E-3
10/19/2017  17:32:24.799716	2.512513E-2	1.861009E-3	6.352453E-3	1.032216E-2	9.166222E-3	1.179979E-2	3.473475E-3	5.908842E-3
10/19/2017  17:32:24.800716	5.191843E-3	1.196977E-2	2.528287E-3	7.560341E-3	1.069899E-2	7.552348E-3	2.204972E-3	1.972869E-3
10/19/2017  17:32:24.801716	7.116700E-2	5.099560E-3	6.813884E-3	5.589851E-3	6.897839E-4	6.092182E-3	5.310387E-3	7.449646E-3
10/19/2017  17:32:24.802716	1.640860E-1	6.435200E-3	4.572847E-3	4.018952E-3	1.524814E-2	6.955668E-3	8.341496E-3	5.269273E-3
10/19/2017  17:32:24.803716	1.962680E-1	3.639721E-3	1.024965E-2	1.025844E-2	6.564912E-3	7.897155E-4	3.659828E-3	7.350307E-3
10/19/2017  17:32:24.804716	1.890310E-1	2.044961E-3	1.184264E-2	2.771744E-3	8.675794E-3	2.779414E-3	2.072060E-3	3.158459E-3
10/19/2017  17:32:24.805716	2.284559E-1	1.417571E-3	7.007983E-3	6.284058E-4	1.971861E-3	2.528084E-4	6.144812E-3	4.333386E-3
10/19/2017  17:32:24.806716	1.262219E-1	1.038671E-2	8.508346E-4	3.097585E-3	2.936166E-3	2.451478E-3	1.893444E-4	1.169672E-2
10/19/2017  17:32:24.807716	3.590143E-2	1.425086E-2	3.607237E-3	4.568406E-4	1.995965E-3	3.721046E-4	4.094739E-3	5.149010E-3
10/19/2017  17:32:24.808716	1.628765E-1	3.058775E-3	2.007750E-3	3.587277E-3	9.595976E-4	6.684668E-3	3.818553E-3	1.276386E-2
10/19/2017  17:32:24.809716	7.017996E-2	1.757604E-2	1.664021E-3	6.287198E-3	9.068013E-4	8.541856E-3	2.890434E-3	4.710940E-3
10/19/2017  17:32:24.810716	5.388349E-2	8.454311E-4	5.677421E-3	9.409848E-3	5.178546E-3	4.596806E-3	6.413755E-3	3.499156E-3
10/19/2017  17:32:24.811716	2.530906E-1	9.795970E-3	4.648836E-3	5.576422E-3	9.280844E-3	1.293661E-3	1.369805E-5	6.580410E-4
10/19/2017  17:32:24.812716	1.190987E-1	2.861430E-3	7.550120E-3	1.232788E-3	1.934101E-3	9.631571E-4	3.060470E-4	7.766365E-4
10/19/2017  17:32:24.813716	5.107068E-2	2.048573E-3	1.533297E-3	8.311260E-3	7.326301E-3	2.504979E-3	2.707255E-3	3.019106E-3
10/19/2017  17:32:24.814716	1.167678E-1	8.068764E-4	1.020420E-2	1.187361E-4	4.344134E-3	5.182476E-3	4.333549E-3	2.363801E-3
10/19/2017  17:32:24.815716	8.022236E-2	3.627805E-3	8.789661E-4	1.153308E-2	1.695429E-2	4.586237E-3	3.154747E-3	3.958459E-3
10/19/2017  17:32:24.816716	2.742412E-3	2.009364E-3	5.973215E-4	4.110956E-3	2.836307E-3	1.587962E-3	2.151527E-3	6.107197E-4
10/19/2017  17:32:24.817716	1.347516E-1	8.168684E-3	2.516215E-3	2.874405E-3	2.523991E-3	1.696711E-3	8.493922E-4	6.799031E-3
10/19/2017  17:32:24.818716	2.108611E-1	2.867189E-3	5.923439E-3	2.510748E-3	8.436403E-3	4.128297E-4	8.395855E-4	2.033433E-3
10/19/2017  17:32:24.819716	2.342175E-1	8.519439E-3	5.721615E-4	2.321849E-3	6.952392E-4	2.934988E-4	2.975418E-3	6.176789E-3
10/19/2017  17:32:24.820716	8.809941E-2	5.693690E-3	9.593584E-3	7.315373E-3	7.275464E-3	5.637478E-3	2.080043E-3	4.054932E-3
10/19/2017  17:32:24.821716	7.715397E-1	7.456028E-3	7.041370E-3	3.323189E-3	7.373826E-3	1.415856E-2	5.609006E-3	4.265590E-4
10/19/2017  17:32:24.822716	8.033562E-1	8.007715E-3	5.572495E-4	1.944619E-2	1.557549E-3	1.904064E-3	1.386217E-3	2.231755E-3
10/19/2017  17:32:24.823716	1.781314E-1	4.884398E-3	1.495591E-2	1.041833E-2	1.010200E-2	8.115491E-3	1.039806E-2	1.908234E-3
10/19/2017  17:32:24.824716	1.410334E-1	5.284959E-3	1.672720E-3	1.201950E-2	2.804977E-3	5.065097E-3	1.627864E-2	7.030872E-3
10/19/2017  17:32:24.825716	2.816225E-1	7.666201E-3	1.535688E-3	1.790576E-3	1.717460E-3	7.683952E-4	3.995985E-3	4.482268E-3
10/19/2017  17:32:24.826716	5.021821E-1	8.047287E-3	1.030353E-2	1.397214E-3	5.679740E-3	4.920905E-3	7.676980E-3	1.056340E-2
10/19/2017  17:32:24.827716	3.480460E-1	5.802750E-3	1.838486E-2	5.854027E-3	6.526214E-3	5.499954E-3	2.938028E-3	1.231894E-2
								
10/19/2017  17:32:24.828716	1.451298E-1	4.187278E-4	5.041662E-3	1.954257E-3	1.731463E-4	3.021106E-3	3.948157E-3	2.099315E-3
10/19/2017  17:32:24.829716	2.129800E-1	7.072910E-3	1.743252E-2	3.119293E-3	2.882824E-3	1.123519E-2	1.380717E-4	1.621717E-3
10/19/2017  17:32:24.830716	2.582941E-1	1.390469E-3	6.145268E-3	9.205669E-3	1.124589E-2	9.238548E-3	1.129353E-2	9.303373E-4
10/19/2017  17:32:24.831716	9.757060E-2	5.251321E-3	2.286466E-3	1.736934E-3	5.339986E-4	1.489146E-2	3.930639E-3	2.700226E-3
10/19/2017  17:32:24.832716	2.259886E-1	1.381975E-2	4.671501E-3	1.299155E-3	3.992482E-3	7.708996E-3	6.029654E-4	1.657650E-3
10/19/2017  17:32:24.833716	8.062699E-2	3.295195E-3	2.945763E-3	1.300512E-3	5.699997E-4	6.461692E-3	1.835201E-3	1.373454E-3
10/19/2017  17:32:24.834716	3.052279E-3	1.548079E-2	2.812292E-3	3.047826E-3	4.101713E-3	5.344252E-3	2.953586E-3	7.858317E-3
10/19/2017  17:32:24.835716	2.020113E-1	6.701137E-3	1.744908E-3	1.682579E-3	1.366438E-3	4.348233E-3	6.249137E-3	5.720982E-3
10/19/2017  17:32:24.836716	2.669687E-1	2.984399E-3	1.598689E-3	1.137594E-2	5.583413E-3	3.465503E-3	3.337252E-4	9.030143E-3
10/19/2017  17:32:24.837716	7.829898E-2	1.958867E-3	8.320499E-3	1.680838E-2	5.999950E-3	3.787301E-3	9.425973E-3	2.357882E-3
10/19/2017  17:32:24.838716	2.700086E-1	7.549556E-3	4.189085E-3	3.266194E-4	9.150043E-3	1.824530E-4	6.942153E-3	3.996300E-3
10/19/2017  17:32:24.839716	3.459066E-1	1.045185E-3	5.365049E-3	2.507527E-3	2.351412E-3	4.607086E-3	1.639286E-3	5.002576E-3
10/19/2017  17:32:24.840716	4.667395E-1	3.608605E-3	9.148910E-3	2.302138E-3	4.816246E-3	7.723290E-4	5.598302E-3	1.178012E-2
10/19/2017  17:32:24.841716	6.254564E-1	6.161680E-3	6.209418E-3	1.502836E-2	1.066182E-3	4.034123E-3	4.755708E-3	6.048770E-3
10/19/2017  17:32:24.842716	1.308103E-1	2.197068E-3	1.135441E-2	2.817476E-4	3.390345E-3	8.356175E-4	5.521913E-3	1.350941E-2
10/19/2017  17:32:24.843716	1.275477E-1	1.028183E-2	1.487506E-2	5.457652E-4	6.425525E-3	9.277621E-3	3.642547E-3	5.414979E-3
10/19/2017  17:32:24.844716	7.699311E-2	6.978270E-3	7.050686E-3	2.928299E-3	2.542498E-3	6.261559E-3	8.707233E-3	1.486133E-3
10/19/2017  17:32:24.845716	6.861943E-1	2.253805E-3	7.436277E-3	6.238577E-3	8.932475E-3	5.850777E-4	4.284762E-3	3.596830E-3
10/19/2017  17:32:24.846716	2.009702E-1	1.534347E-2	5.224089E-3	4.729699E-4	4.494844E-3	9.891642E-3	9.084942E-4	7.115624E-3
10/19/2017  17:32:24.847716	1.108597E-1	4.672075E-3	3.103522E-3	5.437545E-3	5.399941E-3	1.062581E-3	1.571203E-3	6.901194E-4
10/19/2017  17:32:24.848716	2.504994E-1	5.391838E-3	8.977926E-3	1.441397E-2	2.868056E-3	8.419727E-3	1.132941E-3	2.492404E-3
10/19/2017  17:32:24.849716	5.337174E-2	1.605017E-3	1.673968E-4	8.681995E-3	4.365031E-3	2.128203E-4	9.396340E-3	6.648454E-4
10/19/2017  17:32:24.850716	3.162080E-1	3.114263E-3	1.108798E-2	4.187984E-3	3.065665E-3	7.806681E-5	8.842868E-3	7.772482E-4
10/19/2017  17:32:24.851716	6.526769E-1	1.106940E-2	1.165780E-3	1.003700E-2	1.958561E-3	8.939192E-3	8.647302E-3	1.309662E-3
10/19/2017  17:32:24.852716	5.421694E-1	7.822896E-3	1.469495E-2	2.519457E-3	1.136064E-3	2.358552E-3	2.691545E-3	7.040325E-3
10/19/2017  17:32:24.853716	6.255000E-1	7.679330E-4	3.839344E-3	5.213490E-3	3.360090E-3	1.763105E-3	6.442992E-3	6.473404E-3
10/19/2017  17:32:24.854716	9.871826E-3	8.726448E-3	2.038563E-3	1.274211E-2	2.683962E-3	9.892651E-3	2.254910E-4	9.481073E-3
10/19/2017  17:32:24.855716	2.458716E-1	1.006538E-4	6.229123E-3	6.182729E-3	6.551361E-3	4.156370E-3	8.582728E-3	4.362008E-4
10/19/2017  17:32:24.856716	1.482641E-1	3.922102E-4	1.801261E-3	2.064793E-3	2.284881E-3	5.479955E-3	1.572224E-3	1.783082E-3
10/19/2017  17:32:24.857716	3.298385E-2	1.881035E-2	1.166737E-3	7.383429E-4	4.389708E-3	2.803472E-4	3.582466E-3	1.142821E-3
10/19/2017  17:32:24.858716	1.609388E-1	9.312592E-3	3.197779E-3	5.712654E-4	1.053627E-2	9.479222E-5	7.161578E-3	1.532640E-3
10/19/2017  17:32:24.859716	3.350520E-1	2.707125E-2	2.482104E-3	2.591679E-3	7.862347E-3	2.112176E-3	3.526298E-3	5.549206E-3
10/19/2017  17:32:24.860716	1.970452E-1	2.375903E-3	2.178171E-3	9.033276E-3	3.071853E-3	8.574899E-4	2.426337E-3	4.618208E-4
								
10/19/2017  17:32:24.861716	7.368905E-1	6.233875E-3	1.890567E-3	3.088530E-4	6.480224E-3	7.283907E-3	6.499425E-4	4.794612E-3
10/19/2017  17:32:24.862716	5.193444E-1	2.049291E-3	5.396712E-4	9.216263E-3	8.688160E-3	3.541031E-3	5.012330E-3	1.234680E-3
10/19/2017  17:32:24.863716	1.411595E-1	5.750441E-3	2.075465E-3	6.379328E-3	1.106954E-2	4.712386E-3	6.997046E-4	7.856376E-3
10/19/2017  17:32:24.864716	2.290686E-1	1.647692E-3	3.880744E-3	2.138232E-3	5.521740E-3	5.454365E-3	3.849004E-3	1.088048E-3
10/19/2017  17:32:24.865716	8.910812E-2	1.428064E-3	9.326122E-3	1.712649E-3	4.393562E-3	2.587301E-3	3.850069E-3	7.512990E-3
10/19/2017  17:32:24.866716	2.116790E-1	7.943017E-3	1.995103E-3	5.139278E-3	3.843112E-3	4.685719E-3	4.910405E-3	1.019277E-3
10/19/2017  17:32:24.867716	1.848122E-1	1.507353E-3	1.206483E-2	5.306756E-3	9.626442E-3	1.098961E-3	7.506789E-3	1.017796E-2
10/19/2017  17:32:24.868716	1.422459E-1	7.500753E-3	6.548462E-3	1.763596E-2	4.694153E-3	9.177469E-4	5.317352E-3	4.834045E-4
10/19/2017  17:32:24.869716	1.953013E-1	4.982740E-3	1.091299E-4	8.894117E-4	8.953887E-4	7.239119E-3	3.000808E-3	4.228520E-3
10/19/2017  17:32:24.870716	4.925657E-1	5.746821E-3	2.395150E-3	1.994367E-2	1.927626E-3	2.824466E-3	8.882939E-3	4.120308E-3
10/19/2017  17:32:24.871716	4.891843E-1	2.470558E-3	4.106844E-3	4.793461E-4	4.082353E-4	2.663572E-3	4.085589E-3	1.369176E-3
10/19/2017  17:32:24.872716	4.809742E-1	8.671100E-3	8.362376E-4	8.616512E-3	4.466207E-3	6.515157E-3	4.736785E-3	8.011261E-3
10/19/2017  17:32:24.873716	9.110180E-2	4.514923E-3	5.964405E-4	2.515022E-3	7.334864E-3	3.579645E-4	8.001189E-3	3.823895E-3
10/19/2017  17:32:24.874716	2.912913E-1	8.436846E-4	3.862463E-4	4.690167E-3	4.026642E-3	1.944917E-3	1.468473E-2	6.407045E-4
10/19/2017  17:32:24.875716	1.715501E-1	8.331563E-3	1.491269E-2	9.976441E-4	3.424788E-3	2.952582E-3	2.765236E-3	6.000559E-3
10/19/2017  17:32:24.876716	1.371205E-1	5.524296E-4	1.364896E-2	1.744584E-3	5.041643E-3	1.450700E-4	8.766933E-3	4.611176E-3
10/19/2017  17:32:24.877716	4.897350E-2	4.635595E-4	7.692117E-3	2.803168E-3	3.837077E-3	8.863290E-3	6.227251E-3	7.733259E-3
10/19/2017  17:32:24.878716	9.744845E-2	3.923657E-3	1.293377E-3	3.745245E-3	2.801080E-3	1.116956E-2	4.535540E-3	5.292261E-3
10/19/2017  17:32:24.879716	1.564564E-1	3.913722E-3	1.264765E-3	2.288949E-3	2.445791E-4	1.643933E-2	7.783092E-3	3.230712E-3
10/19/2017  17:32:24.880716	1.182094E-1	9.401319E-3	1.223024E-3	8.754256E-3	2.440086E-3	4.333218E-3	3.186027E-3	6.389188E-4
10/19/2017  17:32:24.881716	5.999544E-1	3.372986E-5	9.896282E-4	4.410448E-3	1.754086E-3	1.487001E-2	1.634256E-4	9.508406E-4
10/19/2017  17:32:24.882716	5.632468E-1	1.979969E-2	1.816088E-3	5.383278E-3	1.396503E-2	2.405607E-3	2.303214E-3	9.813035E-3
10/19/2017  17:32:24.883716	1.934026E-1	2.883784E-3	5.327907E-4	7.847433E-3	3.514390E-3	6.655290E-3	1.583325E-3	5.816683E-3
10/19/2017  17:32:24.884716	1.952690E-2	8.644767E-4	6.471108E-3	2.731187E-3	1.598995E-2	2.269870E-3	3.328393E-3	4.835069E-4
10/19/2017  17:32:24.885716	4.688172E-2	1.007787E-2	2.598065E-3	1.627374E-2	4.776735E-3	4.317933E-3	6.713389E-3	9.344009E-3
10/19/2017  17:32:24.886716	5.885247E-2	5.514494E-3	6.787876E-3	3.334585E-3	1.869461E-2	3.466181E-3	1.966796E-3	2.352261E-3
10/19/2017  17:32:24.887716	1.129586E-1	4.473312E-3	2.665737E-4	1.044870E-2	2.284559E-3	2.707652E-3	6.000485E-3	7.123074E-3
10/19/2017  17:32:24.888716	9.976928E-2	2.800334E-3	2.306352E-3	3.890587E-3	7.513196E-3	2.279925E-3	6.487420E-3	4.990807E-3
10/19/2017  17:32:24.889716	8.583369E-2	2.891016E-3	6.723249E-3	9.750616E-3	7.763914E-3	7.078954E-4	8.574428E-3	1.109948E-3
10/19/2017  17:32:24.890716	1.234480E-1	4.740094E-3	7.461895E-5	4.887161E-3	3.230046E-3	2.827403E-3	3.928020E-3	9.951964E-4
10/19/2017  17:32:24.891716	1.119403E-1	1.564084E-3	9.332692E-3	1.193471E-2	2.352562E-3	4.215934E-3	6.090720E-3	8.357330E-3
10/19/2017  17:32:24.892716	5.218567E-2	2.938823E-3	3.837633E-3	5.208477E-3	3.774780E-3	7.953437E-3	6.567503E-3	1.770444E-3
10/19/2017  17:32:24.893716	3.128150E-2	1.711864E-3	1.062963E-2	4.436543E-3	8.371584E-3	5.574097E-3	4.190074E-3	7.377649E-3
								
10/19/2017  17:32:24.894716	1.541103E-2	7.222873E-4	5.442284E-3	1.586098E-3	3.755817E-3	5.040566E-3	9.715280E-4	1.488529E-3
10/19/2017  17:32:24.895716	9.869757E-2	1.084911E-2	2.895526E-3	4.798224E-4	1.924631E-3	1.246384E-2	5.698783E-3	7.820303E-3
10/19/2017  17:32:24.896716	4.619405E-2	5.742935E-3	1.692061E-4	2.434492E-3	3.788824E-3	2.217218E-3	3.748767E-3	9.344530E-4
10/19/2017  17:32:24.897716	3.177325E-2	4.697586E-3	3.961230E-4	6.638464E-3	1.518707E-3	8.418491E-3	8.654970E-3	7.213482E-3
10/19/2017  17:32:24.898716	2.394250E-2	3.080689E-3	7.058613E-3	7.591628E-4	9.321183E-4	4.742057E-3	4.272153E-3	1.546054E-3
10/19/2017  17:32:24.899716	5.655150E-2	4.193899E-3	1.402474E-3	1.323766E-3	1.713198E-3	3.183159E-3	1.234173E-3	7.791557E-3
10/19/2017  17:32:24.900716	4.323767E-2	4.756253E-3	9.576467E-3	2.736105E-3	1.004522E-2	1.872574E-3	5.145797E-3	1.127291E-3
10/19/2017  17:32:24.901716	7.492895E-2	3.760146E-3	6.612031E-3	3.590832E-3	4.269197E-4	3.529570E-3	9.146705E-4	5.634273E-4
10/19/2017  17:32:24.902716	2.257144E-1	9.983233E-4	7.327541E-4	4.651188E-3	6.096972E-5	9.469540E-3	3.097795E-3	4.222099E-3
10/19/2017  17:32:24.903716	3.704917E-1	4.305682E-3	8.175911E-4	6.102319E-3	1.126448E-2	2.545895E-3	2.381027E-3	3.288483E-3
10/19/2017  17:32:24.904716	2.838895E-2	7.399695E-5	3.030481E-3	3.904924E-3	6.459655E-4	6.079963E-3	1.755048E-3	8.514676E-3
10/19/2017  17:32:24.905716	1.426842E-1	3.150295E-3	4.506722E-3	1.046622E-4	2.710105E-3	1.851046E-3	3.101602E-3	7.597783E-3
10/19/2017  17:32:24.906716	1.395438E-1	1.205285E-2	1.110022E-3	1.347075E-2	1.911104E-3	3.474419E-3	2.166963E-3	1.675247E-2
10/19/2017  17:32:24.907716	2.025992E-1	2.254144E-2	7.851408E-4	3.188832E-3	9.226600E-4	2.867571E-3	8.011651E-3	3.317510E-3
10/19/2017  17:32:24.908716	3.800174E-2	3.295947E-3	6.991531E-3	7.291818E-5	5.093672E-3	8.797888E-3	3.191303E-3	1.331698E-2
10/19/2017  17:32:24.909716	7.033190E-2	6.657329E-3	3.997987E-3	8.941035E-3	2.958770E-3	8.344295E-3	4.797247E-3	1.696509E-3
10/19/2017  17:32:24.910716	3.354355E-3	1.382829E-4	5.274396E-3	6.661380E-3	4.301336E-3	3.198687E-3	6.068509E-3	1.677665E-3
10/19/2017  17:32:24.911716	1.990210E-1	8.892103E-3	2.679908E-3	6.765429E-3	7.226500E-3	7.098969E-3	1.891663E-3	1.624076E-3
10/19/2017  17:32:24.912716	4.694710E-2	2.288107E-3	6.122405E-3	2.164446E-3	1.050538E-2	1.178273E-3	1.037045E-3	1.541811E-3
10/19/2017  17:32:24.913716	6.276108E-2	5.381966E-4	2.499067E-3	2.080284E-3	9.830031E-4	3.730893E-3	3.974162E-3	1.007031E-2
10/19/2017  17:32:24.914716	1.391396E-1	1.788432E-3	6.461219E-3	8.465254E-3	1.616906E-3	1.523959E-3	3.360887E-3	1.520847E-3
10/19/2017  17:32:24.915716	2.911720E-1	5.233615E-3	6.867912E-3	2.407981E-3	5.233643E-3	9.081816E-4	4.144632E-3	9.816410E-3
10/19/2017  17:32:24.916716	4.789933E-1	3.545409E-3	8.290996E-3	1.441752E-2	3.070855E-3	6.069875E-3	8.472174E-3	1.933246E-3
10/19/2017  17:32:24.917716	4.083139E-1	6.516009E-3	1.564633E-3	1.006781E-2	2.739834E-4	2.850895E-5	2.215140E-3	1.032407E-2
10/19/2017  17:32:24.918716	1.721230E-1	4.872388E-3	3.353067E-3	1.435190E-2	1.739030E-3	2.171072E-3	3.310439E-3	7.858600E-3
10/19/2017  17:32:24.919716	3.205111E-1	5.145588E-3	6.738696E-3	2.636013E-3	3.091630E-3	6.587250E-4	9.035765E-3	3.142730E-3
10/19/2017  17:32:24.920716	2.611163E-1	8.534419E-4	1.954951E-3	1.781508E-3	2.595459E-3	6.982209E-3	6.746413E-3	2.281644E-3
10/19/2017  17:32:24.921716	1.984683E-1	1.306634E-3	4.782772E-4	1.072504E-3	6.600790E-3	2.561800E-3	4.635012E-4	6.172032E-4
10/19/2017  17:32:24.922716	1.120539E-2	1.553390E-3	6.464775E-3	3.825961E-3	7.028193E-3	2.937473E-3	1.273855E-2	5.378931E-4
10/19/2017  17:32:24.923716	4.923372E-2	1.422217E-3	1.040629E-2	5.029268E-3	1.661248E-3	1.327923E-2	6.389348E-3	4.753195E-4
10/19/2017  17:32:24.924716	1.676195E-1	9.930676E-3	2.605362E-3	3.497172E-3	5.710631E-3	7.171124E-3	9.090694E-3	2.584967E-3
10/19/2017  17:32:24.925716	2.075533E-1	5.973403E-3	3.284562E-3	8.594497E-3	4.598948E-3	1.702032E-2	1.059535E-2	6.795046E-3
10/19/2017  17:32:24.926716	8.915960E-2	6.354898E-3	7.255063E-3	1.801572E-3	9.628685E-3	5.611595E-3	1.045260E-2	6.738026E-3
								
10/19/2017  17:32:24.927716	1.037736E-2	2.325348E-3	8.105485E-3	3.304385E-3	6.266112E-3	9.367540E-3	5.779689E-3	1.419553E-4
10/19/2017  17:32:24.928716	3.652021E-2	6.348997E-3	4.069417E-3	2.058447E-3	1.167652E-2	3.202946E-4	2.189930E-3	1.163545E-2
10/19/2017  17:32:24.929716	1.035795E-1	2.500756E-3	3.153419E-3	1.408244E-2	6.830026E-3	4.043897E-3	1.686314E-3	8.631529E-3
10/19/2017  17:32:24.930716	6.165104E-4	6.093142E-3	4.128659E-3	3.023628E-3	9.067281E-4	3.806392E-3	7.368027E-3	4.715079E-3
10/19/2017  17:32:24.931716	1.701303E-2	8.884796E-3	1.618605E-3	1.090240E-2	3.118670E-3	7.139657E-3	5.728992E-4	9.794446E-3
10/19/2017  17:32:24.932716	1.502383E-2	1.495493E-2	1.000849E-2	5.266149E-3	4.586731E-3	5.683898E-4	8.709309E-3	6.452542E-3
10/19/2017  17:32:24.933716	3.433115E-2	9.461770E-3	9.091357E-3	7.717333E-3	5.382989E-3	4.215401E-3	7.879642E-5	9.255259E-3
10/19/2017  17:32:24.934716	1.413049E-1	7.234646E-3	1.148578E-2	1.026924E-2	5.819128E-3	3.306773E-3	8.545054E-3	4.374900E-3
10/19/2017  17:32:24.935716	1.507859E-1	1.156588E-3	8.557320E-3	7.805826E-3	7.143815E-3	2.075781E-3	1.267839E-3	8.002062E-3
10/19/2017  17:32:24.936716	7.170749E-2	9.296622E-3	4.722081E-3	1.135963E-3	1.134419E-3	9.730205E-3	8.402223E-3	2.858747E-3
10/19/2017  17:32:24.937716	1.651086E-1	2.566900E-3	7.574695E-3	7.529943E-3	2.701433E-3	2.689105E-3	6.391535E-3	2.580928E-4
10/19/2017  17:32:24.938716	1.938912E-1	8.877095E-3	1.557611E-3	5.296127E-3	1.519802E-3	6.831838E-3	3.473788E-4	3.966441E-3
10/19/2017  17:32:24.939716	5.425361E-2	4.400234E-3	8.116526E-3	3.404100E-3	3.759973E-3	3.892877E-3	1.865441E-3	1.836517E-3
10/19/2017  17:32:24.940716	7.236380E-1	1.191215E-3	1.704686E-3	3.370869E-4	5.252790E-3	2.804434E-3	9.572234E-3	1.130320E-2
10/19/2017  17:32:24.941716	3.567241E-1	1.296986E-3	1.345676E-3	5.247862E-3	3.931126E-3	1.051450E-2	4.227589E-3	5.715566E-3
10/19/2017  17:32:24.942716	2.829499E-1	5.169215E-3	1.124322E-3	2.125529E-3	3.704167E-3	6.045261E-3	5.418274E-3	1.561974E-2
10/19/2017  17:32:24.943716	5.963447E-2	1.210499E-3	1.477737E-3	4.150371E-3	3.908481E-4	6.951300E-3	1.289104E-3	4.762629E-4
10/19/2017  17:32:24.944716	2.734740E-1	8.220470E-3	1.027022E-3	3.295320E-3	6.333233E-3	1.321853E-3	1.258448E-2	2.495949E-3
10/19/2017  17:32:24.945716	5.468182E-1	1.719285E-3	1.544105E-3	4.711182E-3	2.118795E-3	3.591740E-3	6.922270E-3	5.979193E-3
10/19/2017  17:32:24.946716	4.652218E-1	1.293474E-3	1.178557E-2	9.839606E-3	3.810570E-3	1.658134E-3	8.271321E-3	4.562838E-4
10/19/2017  17:32:24.947716	3.470541E-1	3.096646E-3	5.104215E-3	4.229101E-3	1.617214E-3	3.195196E-3	5.798429E-4	2.958958E-3
10/19/2017  17:32:24.948716	6.152660E-1	4.379590E-3	8.437337E-3	9.885087E-3	3.270639E-3	4.497870E-3	4.606059E-4	1.806711E-3
10/19/2017  17:32:24.949716	9.346805E-2	7.397916E-3	6.148144E-3	2.714926E-3	4.470246E-5	9.463167E-4	1.330538E-2	7.943461E-4
10/19/2017  17:32:24.950716	4.031784E-1	5.908859E-3	2.043488E-3	6.906979E-3	4.024135E-3	4.813114E-3	1.816545E-3	2.216429E-5
10/19/2017  17:32:24.951716	3.557752E-1	6.330481E-3	7.518390E-3	5.621216E-4	4.097344E-3	3.438949E-3	8.356023E-3	1.145644E-2
10/19/2017  17:32:24.952716	1.587997E-1	1.861919E-3	5.354990E-3	4.042034E-3	1.151851E-3	6.138705E-4	1.923171E-3	1.271828E-2
10/19/2017  17:32:24.953716	1.466112E-1	2.817209E-3	3.558498E-3	1.466079E-3	9.809180E-4	7.282551E-4	2.787257E-3	2.088424E-3
10/19/2017  17:32:24.954716	1.145781E-2	1.180532E-2	2.259208E-3	3.206046E-3	2.657443E-4	1.000007E-2	2.591073E-3	2.512405E-4
10/19/2017  17:32:24.955716	2.299404E-2	2.419591E-3	1.070975E-2	4.337611E-3	6.798528E-3	8.674416E-3	1.067094E-2	1.878190E-3
10/19/2017  17:32:24.956716	5.984441E-2	4.423516E-3	9.548300E-4	5.255455E-3	3.539409E-3	1.960248E-2	1.280969E-3	1.406761E-3
10/19/2017  17:32:24.957716	1.827905E-2	2.641634E-3	4.990618E-3	5.140504E-3	4.301197E-3	3.671105E-3	5.551628E-3	5.922224E-3
10/19/2017  17:32:24.958716	4.714925E-4	1.175960E-2	5.302429E-3	2.716686E-3	1.884508E-3	7.365501E-3	2.389712E-3	4.626931E-3
10/19/2017  17:32:24.959716	5.583215E-2	2.189510E-3	3.842659E-3	3.917416E-3	1.977012E-3	5.385239E-3	7.975722E-3	1.344366E-3
								
10/19/2017  17:32:24.960716	9.583269E-3	2.645425E-3	6.031286E-3	1.054505E-2	6.326150E-3	7.806824E-3	5.675642E-3	1.086031E-3
10/19/2017  17:32:24.961716	5.979508E-2	4.784242E-3	4.228513E-3	1.043496E-3	9.195548E-3	8.143087E-3	1.529600E-2	8.529109E-4
10/19/2017  17:32:24.962716	1.030359E-1	5.587787E-3	8.080126E-3	6.220022E-4	8.669838E-3	8.528303E-3	4.363461E-3	9.277930E-3
10/19/2017  17:32:24.963716	1.108248E-1	3.718088E-3	3.623970E-3	6.208732E-3	3.519078E-3	8.819367E-3	1.185969E-2	6.692398E-3
10/19/2017  17:32:24.964716	1.461123E-1	4.330232E-3	4.084624E-3	6.527655E-3	2.591727E-3	5.035748E-3	1.589175E-3	4.963900E-3
10/19/2017  17:32:24.965716	2.851867E-1	8.082885E-4	2.982807E-3	6.524847E-3	4.792274E-3	1.874735E-3	5.928234E-3	9.974586E-3
10/19/2017  17:32:24.966716	2.111215E-1	6.575530E-3	2.266761E-3	1.243735E-2	1.900806E-3	1.249714E-2	3.228855E-4	1.280330E-2
10/19/2017  17:32:24.967716	3.873911E-1	6.914318E-3	1.624680E-3	4.761242E-3	4.535267E-3	4.171409E-3	3.696739E-3	5.739866E-4
10/19/2017  17:32:24.968716	9.992466E-2	5.591813E-3	5.397695E-3	1.265941E-2	6.253314E-3	1.599721E-2	4.406437E-3	8.265365E-3
10/19/2017  17:32:24.969716	1.729561E-2	2.041583E-3	2.753176E-3	5.015951E-4	1.163739E-2	4.311339E-3	7.919127E-3	8.676090E-4
10/19/2017  17:32:24.970716	1.254794E+0	9.233177E-4	2.023255E-3	4.676075E-3	2.028096E-3	1.015383E-2	2.848700E-3	9.585924E-3
10/19/2017  17:32:24.971716	5.770625E-1	6.452469E-3	2.917489E-3	3.357395E-3	4.982281E-3	3.350845E-3	1.838302E-3	1.843298E-3
10/19/2017  17:32:24.972716	8.919687E-1	7.192051E-3	2.022798E-3	4.694144E-3	3.187909E-3	2.117820E-3	5.330477E-3	7.901319E-4
10/19/2017  17:32:24.973716	6.223437E-1	9.324337E-4	1.168102E-2	1.028262E-3	1.109769E-2	7.522128E-3	1.184595E-2	4.772461E-4
10/19/2017  17:32:24.974716	7.734058E-1	6.950418E-4	5.971165E-4	7.257139E-3	1.047546E-3	3.333286E-3	4.262604E-3	4.529323E-3
10/19/2017  17:32:24.975716	6.383493E-1	1.675660E-3	5.127317E-3	1.575400E-3	1.195208E-2	8.484873E-3	5.730587E-3	7.331968E-4
10/19/2017  17:32:24.976716	5.457249E-1	5.319847E-3	4.585590E-4	7.898540E-3	8.854155E-3	1.498818E-3	2.420211E-3	1.071044E-2
10/19/2017  17:32:24.977716	3.863662E-1	9.331206E-3	4.196366E-3	3.015706E-3	3.941290E-3	5.774578E-3	8.161643E-3	5.263169E-3
10/19/2017  17:32:24.978716	3.806765E-1	1.298466E-2	3.433640E-3	2.086930E-3	1.982614E-3	6.435967E-3	1.091881E-3	3.558935E-3
10/19/2017  17:32:24.979716	2.211410E-1	6.605241E-3	1.228781E-4	3.463678E-3	6.205364E-3	8.513360E-3	1.953809E-3	6.453752E-3
10/19/2017  17:32:24.980716	8.627472E-2	1.123058E-3	8.760945E-3	6.537215E-3	1.824472E-3	3.792154E-3	2.351206E-3	4.481341E-4
10/19/2017  17:32:24.981716	1.778889E-2	1.143314E-4	1.794113E-3	8.137687E-3	5.333357E-3	2.368171E-3	3.115971E-3	3.165786E-3
10/19/2017  17:32:24.982716	1.073848E-2	4.983969E-3	1.196897E-2	5.336270E-3	1.406288E-2	9.477657E-4	7.348970E-3	7.409489E-3
10/19/2017  17:32:24.983716	3.737983E-1	8.466234E-3	2.624013E-4	1.426992E-2	7.219262E-4	9.980876E-4	5.993647E-3	1.044022E-2
10/19/2017  17:32:24.984716	1.510126E-1	1.962448E-3	6.916945E-3	1.853663E-3	1.782876E-2	4.150954E-3	4.794544E-3	5.704448E-3
10/19/2017  17:32:24.985716	9.325046E-3	6.636181E-4	5.975725E-4	6.784813E-4	9.654619E-3	5.530985E-3	5.746996E-4	2.282149E-3
10/19/2017  17:32:24.986716	2.485597E-2	6.093412E-3	6.150384E-3	1.858598E-3	2.039833E-2	6.271480E-3	7.793841E-5	7.933886E-3
10/19/2017  17:32:24.987716	1.040671E-2	4.172709E-3	7.210776E-5	1.008596E-2	3.103743E-3	2.143622E-3	2.463213E-3	7.802843E-3
10/19/2017  17:32:24.988716	6.091790E-2	1.773857E-3	1.104100E-2	2.563654E-3	6.949177E-3	2.652012E-3	1.183247E-4	3.679797E-3
10/19/2017  17:32:24.989716	6.745287E-2	1.720630E-3	1.015899E-3	5.181004E-3	2.937740E-3	5.333901E-4	1.984020E-4	2.690447E-3
10/19/2017  17:32:24.990716	6.778132E-2	4.812370E-3	5.363993E-3	1.926341E-3	1.089355E-2	3.625904E-3	9.059546E-3	1.909602E-2
10/19/2017  17:32:24.991716	6.131119E-2	5.915293E-4	3.690426E-4	6.950815E-3	9.967303E-3	1.087129E-2	6.562314E-3	2.424485E-3
10/19/2017  17:32:24.992716	9.537804E-2	4.717701E-3	2.308903E-3	1.294704E-2	9.414112E-3	5.050017E-3	4.577718E-3	1.144999E-2
								
10/19/2017  17:32:24.993716	7.486911E-2	4.086102E-3	7.215768E-3	7.272662E-3	2.244985E-3	3.178679E-3	7.733127E-4	6.723478E-3
10/19/2017  17:32:24.994716	1.084731E-1	2.968179E-3	2.950757E-3	1.474039E-3	4.072109E-3	4.677364E-3	2.020819E-3	5.564347E-3
10/19/2017  17:32:24.995716	1.360239E-1	7.864259E-4	2.707792E-4	5.564101E-3	8.877163E-4	7.388008E-3	8.272076E-3	3.169981E-3
10/19/2017  17:32:24.996716	1.035430E-1	1.365478E-3	2.600073E-3	1.778912E-3	7.212466E-3	3.720241E-3	1.598935E-3	1.153603E-2
10/19/2017  17:32:24.997716	5.040172E-2	8.263157E-3	1.443857E-4	3.197934E-3	3.725008E-3	1.366975E-3	9.780180E-3	1.954628E-3
10/19/2017  17:32:24.998716	1.557013E-1	6.423274E-3	1.073929E-2	1.608339E-4	2.796952E-3	7.091240E-3	4.040617E-3	7.186002E-3
10/19/2017  17:32:24.999716	2.034048E-1	5.970969E-3	5.918999E-3	4.447329E-3	2.010104E-3	3.992611E-5	3.016556E-3	6.006470E-3
10/19/2017  17:32:25.000716	1.232799E-1	4.821947E-3	1.337077E-2	5.642344E-3	7.303604E-3	7.934971E-4	3.346762E-5	1.308942E-2
10/19/2017  17:32:25.001716	2.400901E-1	3.755309E-3	1.305703E-3	2.465558E-3	2.844136E-3	5.747475E-3	2.062905E-3	4.020020E-3
10/19/2017  17:32:25.002716	4.346269E-1	6.555053E-4	1.032123E-3	4.529103E-4	2.695234E-3	6.952818E-3	8.684781E-4	1.188090E-2
10/19/2017  17:32:25.003716	3.246828E-1	9.173686E-3	8.019425E-4	9.019889E-3	4.432501E-3	1.060432E-3	5.131600E-3	4.578302E-3
10/19/2017  17:32:25.004716	3.995488E-2	4.057065E-3	3.708795E-3	6.842889E-3	3.338340E-3	3.262513E-3	1.515594E-3	1.190419E-2
10/19/2017  17:32:25.005716	2.109938E-1	4.435825E-3	4.030016E-3	1.148842E-2	1.924211E-3	6.087240E-3	1.409324E-2	6.695989E-4
10/19/2017  17:32:25.006716	1.187859E-1	6.378456E-3	7.275041E-3	5.156094E-3	3.458410E-3	9.059457E-3	5.226321E-3	1.622702E-2
10/19/2017  17:32:25.007716	5.318939E-2	7.487481E-3	3.686404E-3	1.477729E-2	6.553136E-3	6.602694E-3	3.638592E-3	2.964564E-3
10/19/2017  17:32:25.008716	2.081471E-1	1.531921E-3	9.263472E-3	4.904286E-3	6.702476E-3	1.838067E-4	5.629684E-3	6.735800E-3
10/19/2017  17:32:25.009716	1.492073E-1	4.936515E-3	4.437266E-3	5.917875E-3	5.158565E-3	6.651844E-3	4.063050E-4	2.626321E-3
10/19/2017  17:32:25.010716	1.022436E-1	1.483048E-3	1.196294E-2	4.417236E-3	2.666941E-3	2.669489E-3	1.006363E-3	4.648609E-4
10/19/2017  17:32:25.011716	9.147967E-2	1.257962E-2	4.550940E-4	5.169853E-3	4.843186E-4	8.936742E-3	2.859916E-3	5.280860E-4
10/19/2017  17:32:25.012716	8.750282E-2	9.237685E-3	9.410765E-3	5.352724E-3	4.907397E-3	8.214940E-3	9.660746E-3	7.040969E-3
10/19/2017  17:32:25.013716	5.805540E-2	7.637339E-5	4.644300E-3	2.514227E-4	1.003100E-2	3.548106E-3	7.499601E-3	3.702909E-3
10/19/2017  17:32:25.014716	1.780695E-2	4.650210E-3	1.174949E-3	4.382887E-3	1.919011E-3	1.194155E-2	5.618987E-3	4.799846E-3
10/19/2017  17:32:25.015716	2.540647E-2	3.040871E-3	5.334022E-3	1.114603E-3	1.048707E-2	2.249915E-4	4.633427E-3	7.516455E-3
10/19/2017  17:32:25.016716	2.319345E-3	2.147825E-4	5.447611E-4	1.874108E-2	1.106841E-3	3.870700E-3	1.027403E-3	1.033852E-2
10/19/2017  17:32:25.017716	1.207250E-2	1.741113E-3	6.045598E-3	1.322716E-2	9.394370E-3	1.238343E-4	1.613140E-3	9.801984E-3
10/19/2017  17:32:25.018716	2.617689E-2	8.789282E-4	1.109558E-2	9.674896E-3	2.481570E-4	9.107726E-3	8.801165E-4	3.994205E-3
10/19/2017  17:32:25.019716	1.575771E-1	1.783636E-4	5.651649E-3	2.518733E-4	9.396805E-3	2.419172E-3	3.830488E-3	2.973453E-3
10/19/2017  17:32:25.020716	4.296444E-2	2.536402E-3	5.041677E-3	3.138380E-3	4.769143E-3	2.497076E-3	5.575839E-4	2.206456E-3
10/19/2017  17:32:25.021716	1.974820E-1	9.811754E-5	3.909371E-3	1.162022E-2	3.103526E-3	3.752966E-3	1.851031E-3	1.014395E-2
10/19/2017  17:32:25.022716	2.357810E-1	1.625316E-3	7.758387E-4	2.108937E-3	6.463833E-3	2.015124E-3	1.157732E-2	1.910683E-3
10/19/2017  17:32:25.023716	1.574961E-1	1.235870E-2	5.823809E-3	5.075834E-4	6.581558E-3	8.262589E-3	9.125530E-4	1.055708E-2
10/19/2017  17:32:25.024716	8.638731E-2	6.768543E-3	9.151024E-3	1.955901E-3	2.712765E-3	5.636453E-4	7.781120E-3	3.376521E-3
10/19/2017  17:32:25.025716	3.298993E-2	2.510350E-4	6.570133E-3	1.011996E-2	4.133309E-3	4.273486E-4	8.114135E-3	1.058162E-2
								
10/19/2017  17:32:25.026716	9.306120E-3	2.335393E-3	6.406284E-3	6.864368E-3	6.265842E-4	2.477918E-3	7.094045E-3	3.614799E-3
10/19/2017  17:32:25.027716	1.744847E-2	2.346223E-3	6.836318E-3	6.663147E-3	1.950794E-3	1.032005E-2	3.885894E-3	1.154301E-2
10/19/2017  17:32:25.028716	7.162476E-4	7.726396E-3	4.664176E-3	9.687313E-3	5.902711E-3	1.259299E-2	3.016950E-3	1.610939E-3
10/19/2017  17:32:25.029716	7.839436E-2	3.929470E-3	5.786436E-3	2.817599E-3	6.662378E-3	2.627714E-3	6.589251E-3	8.316011E-4
10/19/2017  17:32:25.030716	2.308626E-1	5.742338E-3	6.599050E-3	8.517547E-5	6.739896E-3	4.681213E-3	2.283631E-4	8.439177E-3
10/19/2017  17:32:25.031716	2.773620E-1	6.842655E-3	4.091887E-4	8.645013E-3	2.206861E-3	3.263138E-3	8.691886E-3	6.114467E-3
10/19/2017  17:32:25.032716	4.701664E-2	8.783088E-4	2.442952E-4	2.897010E-3	2.374231E-2	2.231039E-3	1.766103E-3	1.660727E-4
10/19/2017  17:32:25.033716	5.746014E-1	1.280880E-3	6.375494E-3	1.975419E-2	2.957497E-3	6.092616E-3	9.877181E-4	2.544561E-3
10/19/2017  17:32:25.034716	6.234602E-1	3.716434E-3	8.589332E-3	5.748471E-3	2.209592E-2	4.265756E-3	3.967017E-3	4.158055E-3
10/19/2017  17:32:25.035716	2.409134E-1	7.155990E-3	2.630469E-3	6.356324E-3	4.086304E-3	1.596639E-3	5.222700E-3	3.501485E-3
10/19/2017  17:32:25.036716	2.794890E-1	3.658665E-3	2.353178E-3	2.547101E-3	5.481085E-3	1.468994E-3	5.771688E-4	2.189045E-4
10/19/2017  17:32:25.037716	1.803790E-1	1.653177E-3	1.146096E-2	4.575259E-3	6.255976E-3	1.347220E-3	1.745037E-3	6.411530E-6
10/19/2017  17:32:25.038716	1.408220E-1	1.091649E-3	5.036997E-3	1.547218E-3	3.273740E-5	7.403249E-3	1.174360E-3	1.797142E-4
10/19/2017  17:32:25.039716	2.572056E-1	3.037856E-3	5.901667E-3	1.660752E-2	6.630126E-3	2.521923E-3	2.855313E-3	4.624475E-3
10/19/2017  17:32:25.040716	9.548267E-2	8.638604E-3	1.926635E-3	7.236205E-3	3.081427E-4	7.656591E-3	1.754908E-3	5.454344E-3
10/19/2017  17:32:25.041716	2.385087E-1	3.671836E-3	7.527752E-3	1.286763E-2	8.596206E-3	1.038035E-2	1.209695E-2	7.171488E-3
10/19/2017  17:32:25.042716	2.864500E-1	4.189302E-3	3.204955E-3	5.597451E-3	5.951081E-3	3.218317E-3	4.264753E-3	5.633420E-3
10/19/2017  17:32:25.043716	1.016227E-1	1.081485E-2	6.352121E-5	5.168799E-3	2.756891E-3	1.069052E-2	1.453952E-2	5.942321E-3
10/19/2017  17:32:25.044716	2.272394E-1	3.917001E-3	2.708763E-4	6.245643E-3	8.948162E-3	8.207498E-3	6.371360E-4	2.786026E-3
10/19/2017  17:32:25.045716	5.022033E-2	3.353299E-3	4.743600E-3	4.046610E-3	6.528432E-3	4.217430E-3	7.749674E-4	1.331192E-2
10/19/2017  17:32:25.046716	3.768833E-1	1.924296E-3	9.911456E-3	6.934333E-3	8.504010E-3	1.174986E-3	1.165406E-2	7.346981E-3
10/19/2017  17:32:25.047716	4.205080E-1	7.601525E-4	8.445483E-3	8.627239E-3	1.632386E-3	3.259761E-3	8.163680E-3	1.628172E-3
10/19/2017  17:32:25.048716	3.213371E-1	8.801297E-3	1.050678E-2	6.512077E-3	3.406639E-3	2.454299E-3	3.398368E-3	1.021422E-2
10/19/2017  17:32:25.049716	2.537921E-1	8.844218E-3	5.777926E-3	2.536253E-3	2.564492E-3	1.750138E-3	9.465281E-3	1.324872E-3
10/19/2017  17:32:25.050716	5.542951E-2	1.643624E-4	1.915419E-5	4.777248E-3	4.004784E-3	5.334961E-3	6.955915E-3	9.574087E-3
10/19/2017  17:32:25.051716	1.486393E-2	8.446447E-3	4.182646E-3	1.199365E-2	3.810757E-3	4.903159E-3	2.666886E-3	6.532940E-3
10/19/2017  17:32:25.052716	8.078543E-2	8.914471E-4	4.904093E-4	7.149838E-3	2.787095E-3	1.239958E-3	2.728682E-3	1.138270E-2
10/19/2017  17:32:25.053716	2.150040E-2	7.632821E-3	6.539552E-3	1.200096E-2	4.567050E-3	1.485275E-3	4.271031E-3	1.155967E-2
10/19/2017  17:32:25.054716	8.681507E-2	3.545780E-3	2.679950E-3	4.502424E-3	1.171862E-3	3.064129E-3	1.708113E-3	1.244599E-2
10/19/2017  17:32:25.055716	1.953287E-1	9.095054E-3	2.383480E-3	1.076811E-3	1.227437E-3	2.473232E-3	8.133458E-3	6.957439E-3
10/19/2017  17:32:25.056716	1.605380E-1	2.845224E-4	1.603397E-3	5.749165E-3	1.443341E-3	8.545679E-3	5.384300E-4	9.194558E-4
10/19/2017  17:32:25.057716	2.974709E-1	2.733878E-3	9.627311E-4	4.226297E-4	1.196885E-2	4.079406E-4	2.436292E-3	2.523267E-5
10/19/2017  17:32:25.058716	3.804594E-1	7.594170E-5	4.459596E-4	1.136134E-2	3.836852E-3	4.675810E-3	9.266897E-3	4.987994E-3
								
10/19/2017  17:32:25.059716	3.570931E-1	6.808049E-3	4.357647E-3	7.197218E-3	8.139084E-5	5.429667E-3	2.160546E-3	1.704407E-2
10/19/2017  17:32:25.060716	5.084086E-1	7.025653E-3	3.850364E-3	9.425568E-3	9.451357E-3	2.643142E-3	9.556441E-3	1.191693E-3
10/19/2017  17:32:25.061716	2.417015E-1	3.963247E-3	7.451482E-3	4.562723E-3	6.613778E-4	8.328263E-3	3.059216E-4	1.464033E-2
10/19/2017  17:32:25.062716	9.982324E-2	3.098350E-3	1.091965E-3	3.674595E-3	1.347472E-3	9.426322E-4	8.533007E-3	9.149080E-3
10/19/2017  17:32:25.063716	4.929806E-1	2.006867E-4	3.594810E-3	1.418221E-3	8.110702E-3	5.463286E-3	1.548349E-3	1.073671E-2
10/19/2017  17:32:25.064716	3.901208E-3	2.832352E-4	8.946315E-3	1.661386E-2	8.066738E-3	2.027223E-3	1.221530E-2	3.777576E-3
10/19/2017  17:32:25.065716	6.067796E-2	1.809487E-3	2.775143E-3	7.497602E-4	3.179547E-3	4.836171E-3	4.316742E-3	7.651383E-3
10/19/2017  17:32:25.066716	8.144408E-2	3.265732E-3	6.829842E-3	6.425675E-3	2.514668E-3	1.264785E-3	1.386855E-2	6.520410E-4
10/19/2017  17:32:25.067716	1.270460E+0	2.473964E-3	3.000764E-3	1.132610E-2	2.378223E-3	9.952255E-3	5.817649E-3	6.561895E-3
10/19/2017  17:32:25.068716	8.068044E-1	2.517277E-3	2.029210E-3	7.958380E-4	2.892439E-3	4.969252E-3	1.798572E-3	2.491434E-3
10/19/2017  17:32:25.069716	4.284055E-2	4.897082E-4	3.374871E-3	8.784909E-4	2.256899E-3	5.449494E-3	3.636825E-3	8.962089E-3
10/19/2017  17:32:25.070716	7.218817E-2	2.646298E-3	1.662883E-4	9.283636E-4	1.715592E-3	5.293850E-3	3.113342E-3	2.460994E-3
10/19/2017  17:32:25.071716	4.544255E-1	4.548518E-3	9.231174E-3	7.690942E-3	9.046248E-4	6.358690E-3	4.681668E-4	1.535926E-4
10/19/2017  17:32:25.072716	6.075666E-2	3.443166E-3	2.415217E-4	5.377739E-4	1.588243E-3	2.541711E-3	2.882783E-3	1.449974E-4
10/19/2017  17:32:25.073716	3.314099E-2	4.197739E-4	8.879988E-3	3.811096E-4	3.171345E-3	3.162391E-4	4.507067E-3	6.844174E-3
10/19/2017  17:32:25.074716	2.550076E-1	1.769395E-3	2.601517E-3	3.227256E-3	6.438843E-3	1.959840E-3	1.001337E-3	5.603182E-4
10/19/2017  17:32:25.075716	4.617508E-1	1.062395E-3	4.300785E-3	5.200934E-3	2.357981E-3	3.506866E-3	1.545479E-3	4.006691E-3
10/19/2017  17:32:25.076716	2.193745E-1	3.411355E-3	1.025461E-3	4.624885E-3	4.352371E-3	8.505430E-3	5.457164E-3	2.804693E-3
10/19/2017  17:32:25.077716	1.594548E-1	4.333656E-3	5.106047E-3	1.893904E-3	4.603319E-3	1.561176E-2	5.839927E-3	2.509672E-3
10/19/2017  17:32:25.078716	5.381758E-2	1.188431E-2	2.994812E-3	1.158634E-4	2.333661E-3	2.018607E-3	4.992916E-3	1.907119E-3
10/19/2017  17:32:25.079716	4.474330E-2	2.671799E-3	2.221785E-3	9.283579E-3	1.031950E-2	3.602984E-3	6.146561E-3	5.096112E-3
10/19/2017  17:32:25.080716	4.713392E-2	6.595908E-3	2.756069E-3	2.683753E-3	3.889843E-3	9.702263E-3	1.900804E-3	5.586934E-3
10/19/2017  17:32:25.081716	5.108988E-3	1.649703E-3	1.893282E-3	4.357549E-3	1.296962E-3	1.430272E-3	3.264888E-3	5.132262E-3
10/19/2017  17:32:25.082716	1.676520E-2	7.495740E-3	1.174106E-3	1.453065E-2	1.575080E-3	1.427537E-3	2.415568E-3	8.322070E-3
10/19/2017  17:32:25.083716	3.963358E-2	3.784314E-3	3.735014E-3	3.671399E-3	1.039248E-2	5.592118E-3	6.437586E-3	1.598386E-3
10/19/2017  17:32:25.084716	9.038740E-3	9.618704E-3	2.791792E-3	8.706952E-3	5.453997E-3	6.173562E-3	3.882667E-3	7.659544E-3
10/19/2017  17:32:25.085716	6.958544E-3	2.603083E-3	2.335654E-3	8.642536E-3	5.428786E-4	4.512388E-3	6.147272E-3	3.279740E-3
10/19/2017  17:32:25.086716	1.816494E-2	2.576233E-3	3.762629E-3	2.572316E-3	1.614552E-3	9.189144E-4	8.474088E-3	1.315659E-2
10/19/2017  17:32:25.087716	5.121045E-2	1.879608E-3	2.446634E-3	1.915129E-2	7.374485E-3	1.716598E-3	5.144330E-3	4.509690E-3
10/19/2017  17:32:25.088716	8.533789E-2	8.662899E-4	7.276586E-3	1.090261E-2	4.622315E-3	1.404191E-3	1.796712E-3	6.325620E-3
10/19/2017  17:32:25.089716	1.867486E-3	7.121962E-3	1.159164E-3	1.539523E-2	4.162437E-3	1.136817E-3	3.634862E-3	9.605133E-3
10/19/2017  17:32:25.090716	2.532606E-1	3.826440E-3	1.365561E-2	9.686256E-3	1.040220E-2	3.407485E-3	3.835615E-3	7.871833E-4
10/19/2017  17:32:25.091716	3.868022E-1	5.081931E-3	3.924871E-3	6.620061E-4	3.677701E-3	2.356831E-5	2.561108E-3	5.563875E-3
								
10/19/2017  17:32:25.092716	3.066368E-1	1.441180E-3	2.077870E-2	7.146286E-3	3.445050E-3	6.762930E-3	7.122294E-3	9.590714E-3
10/19/2017  17:32:25.093716	1.264594E-1	5.571747E-3	6.908820E-3	6.055634E-3	2.920362E-4	5.911500E-3	7.301686E-3	7.147406E-3
10/19/2017  17:32:25.094716	7.073484E-1	2.585678E-3	1.143377E-2	1.154332E-2	5.194182E-3	6.113115E-3	1.559453E-3	1.413831E-3
10/19/2017  17:32:25.095716	1.314437E+0	1.871090E-3	3.123350E-3	2.284009E-3	4.209316E-3	7.018722E-3	7.240837E-4	7.524405E-3
10/19/2017  17:32:25.096716	2.355914E-1	8.907318E-4	1.781120E-2	5.160156E-3	9.878360E-4	7.548303E-3	1.376803E-4	7.855044E-3
10/19/2017  17:32:25.097716	1.040490E+0	1.147709E-2	2.680191E-3	8.127915E-3	1.832630E-3	6.103123E-3	2.491946E-3	8.538373E-4
10/19/2017  17:32:25.098716	6.514042E-1	8.764279E-4	6.560544E-3	3.094696E-3	3.803471E-3	1.564047E-3	6.468627E-3	4.935763E-3
10/19/2017  17:32:25.099716	1.090942E-1	1.625205E-2	4.456019E-4	1.107057E-2	7.223427E-3	5.984292E-3	1.731402E-3	3.328638E-3
10/19/2017  17:32:25.100716	1.326933E-1	5.790233E-3	8.279303E-3	9.675168E-4	5.804062E-3	1.333886E-2	3.227627E-3	8.794026E-3
10/19/2017  17:32:25.101716	2.097243E-1	1.493024E-2	9.720689E-4	5.281404E-3	4.115740E-3	5.728489E-3	2.340283E-3	1.413800E-4
10/19/2017  17:32:25.102716	6.425245E-2	5.109518E-3	9.801014E-3	4.980681E-4	8.110082E-3	2.103297E-4	6.268314E-3	4.419931E-3
10/19/2017  17:32:25.103716	7.485613E-2	8.566979E-3	6.223134E-4	2.489449E-3	3.551853E-3	4.462787E-3	1.970905E-3	1.335239E-3
10/19/2017  17:32:25.104716	3.194920E-1	4.216239E-3	6.004136E-3	1.656866E-3	6.416592E-3	1.339826E-3	1.339924E-3	1.053112E-3
10/19/2017  17:32:25.105716	7.682165E-1	7.742182E-3	2.480845E-3	3.338991E-3	4.672793E-3	3.330921E-3	5.655056E-3	5.913998E-3
10/19/2017  17:32:25.106716	4.392581E-1	1.279958E-3	1.066624E-2	4.617868E-3	7.609568E-3	3.195586E-4	6.112718E-3	1.409250E-4
10/19/2017  17:32:25.107716	1.299494E-1	9.897896E-3	9.552957E-4	5.497126E-3	5.271826E-3	6.161600E-3	1.816094E-3	4.513978E-3
10/19/2017  17:32:25.108716	2.323354E-1	5.374877E-4	1.258172E-2	3.908648E-3	1.023076E-3	4.597812E-3	5.725447E-3	1.167620E-3
10/19/2017  17:32:25.109716	1.007062E-1	2.382301E-3	2.006977E-3	1.731860E-3	3.398908E-3	3.536499E-3	4.167948E-3	1.275602E-3
10/19/2017  17:32:25.110716	5.691441E-2	2.907706E-3	8.123512E-3	1.394370E-3	3.653706E-3	1.685422E-3	1.888558E-3	1.336291E-3
10/19/2017  17:32:25.111716	4.806635E-2	8.491949E-3	5.119175E-3	3.238580E-3	6.631984E-3	9.665973E-3	4.053364E-3	7.466918E-3
10/19/2017  17:32:25.112716	1.301275E-2	3.165417E-3	5.783032E-3	2.107039E-3	9.450830E-3	2.345570E-3	5.463366E-3	5.036616E-3
10/19/2017  17:32:25.113716	1.225485E-1	1.147545E-2	5.039499E-4	9.614538E-3	6.251031E-3	6.631582E-3	2.385158E-3	5.158968E-3
10/19/2017  17:32:25.114716	1.107511E+0	2.461498E-3	7.199843E-3	1.760429E-2	2.118572E-3	9.967949E-3	5.030828E-3	1.017997E-2
10/19/2017  17:32:25.115716	7.574759E-1	1.020942E-2	9.092973E-4	7.763437E-3	9.631208E-3	2.338629E-3	5.828808E-3	1.003631E-2
10/19/2017  17:32:25.116716	7.178729E-1	8.466960E-3	3.661581E-3	2.317037E-3	6.836945E-3	1.764131E-2	6.829270E-3	8.691364E-4
10/19/2017  17:32:25.117716	2.509028E-1	8.622043E-3	2.459604E-3	3.580565E-3	2.317625E-3	6.655583E-3	1.613985E-3	1.446080E-3
10/19/2017  17:32:25.118716	3.149662E-1	6.758716E-3	9.335529E-3	5.590363E-3	1.191277E-2	2.069376E-3	9.768092E-3	5.595951E-3
10/19/2017  17:32:25.119716	4.366938E-1	4.070906E-3	6.352472E-3	6.852244E-3	8.662574E-3	1.043298E-2	2.105062E-3	3.844508E-4
10/19/2017  17:32:25.120716	1.778505E-1	5.219398E-3	4.400154E-3	5.332358E-3	1.139481E-2	1.302223E-3	2.336252E-3	9.002102E-3
10/19/2017  17:32:25.121716	2.665268E-1	5.800011E-3	5.866742E-3	6.786878E-3	1.146403E-2	1.087552E-3	3.260485E-3	6.151688E-3
10/19/2017  17:32:25.122716	6.498104E-2	2.714052E-3	8.688057E-3	2.105047E-3	5.065492E-3	9.105973E-4	5.039352E-3	4.858087E-3
10/19/2017  17:32:25.123716	2.244703E-1	1.263008E-4	4.913466E-4	4.124525E-3	3.771841E-3	3.550798E-3	1.814218E-3	8.290138E-3
10/19/2017  17:32:25.124716	4.206424E-1	8.180744E-3	7.110524E-3	7.570935E-3	6.995958E-3	2.066885E-3	2.721474E-3	4.710934E-3
								
10/19/2017  17:32:25.125716	5.639734E-1	1.380288E-3	2.929145E-3	5.420882E-3	3.186085E-4	2.580187E-3	2.798585E-3	3.051722E-3
10/19/2017  17:32:25.126716	3.780788E-1	1.690870E-2	1.101683E-2	8.054734E-3	8.870886E-3	2.867702E-3	6.674930E-3	4.786014E-3
10/19/2017  17:32:25.127716	6.151566E-1	3.606396E-3	1.059394E-3	1.419946E-2	2.121001E-3	4.541798E-3	2.696799E-3	8.074896E-3
10/19/2017  17:32:25.128716	2.463283E-1	3.319510E-4	7.583159E-3	1.013264E-2	1.581766E-2	9.094797E-4	2.459154E-3	3.592607E-3
10/19/2017  17:32:25.129716	1.944479E-1	6.374430E-3	1.154302E-3	1.275167E-2	2.314725E-3	2.612971E-3	4.025913E-4	1.988652E-3
10/19/2017  17:32:25.130716	8.634028E-1	4.194556E-3	5.684653E-3	1.553806E-3	1.793553E-4	6.272002E-4	4.593440E-3	2.681841E-3
10/19/2017  17:32:25.131716	8.398491E-1	7.293996E-3	1.696762E-3	9.596341E-3	5.183894E-3	5.124828E-3	1.251328E-3	1.563769E-3
10/19/2017  17:32:25.132716	3.927540E-1	5.307874E-4	1.207917E-2	2.267453E-4	4.271266E-3	1.675619E-3	7.588535E-3	1.015741E-2
10/19/2017  17:32:25.133716	8.921597E-2	8.724395E-3	4.172845E-3	1.384383E-2	3.448412E-3	3.033711E-3	1.025373E-3	5.213946E-3
10/19/2017  17:32:25.134716	7.848524E-2	2.065182E-3	3.899419E-3	7.029418E-4	4.875020E-3	2.032831E-4	1.596758E-3	1.153255E-2
10/19/2017  17:32:25.135716	1.200649E-1	4.976307E-3	9.563031E-3	1.760362E-2	7.836821E-3	2.543442E-3	1.204815E-2	3.615977E-3
10/19/2017  17:32:25.136716	4.330940E-1	3.145826E-3	8.391797E-3	8.185004E-4	5.570240E-3	8.441896E-3	6.896152E-3	1.428392E-4
10/19/2017  17:32:25.137716	5.435211E-1	1.926151E-3	1.496579E-3	1.140938E-2	4.190200E-3	9.295503E-3	9.466751E-3	1.153838E-2
10/19/2017  17:32:25.138716	4.297906E-1	5.318002E-3	5.717804E-3	8.975111E-3	3.464436E-3	6.538401E-3	8.533807E-3	1.750731E-4
10/19/2017  17:32:25.139716	1.685405E-1	4.811709E-3	6.343510E-3	1.549588E-2	6.630771E-3	8.722824E-3	8.155329E-3	6.426695E-3
10/19/2017  17:32:25.140716	4.191022E-1	3.242580E-3	2.148578E-3	4.291788E-3	4.421382E-3	1.069599E-2	7.632378E-3	2.348316E-3
10/19/2017  17:32:25.141716	7.764049E-2	8.853373E-3	8.186752E-3	1.065570E-3	7.900834E-3	3.506446E-3	7.900280E-3	8.597785E-3
10/19/2017  17:32:25.142716	4.237513E-2	4.218339E-3	1.807473E-2	9.163143E-3	5.743529E-3	1.360978E-2	1.264905E-3	4.085044E-3
10/19/2017  17:32:25.143716	6.651739E-2	3.644269E-3	5.850709E-4	6.047029E-4	1.122013E-2	3.481947E-3	3.583285E-3	1.521314E-3
10/19/2017  17:32:25.144716	1.927950E-1	6.996504E-3	1.621534E-2	7.687045E-3	7.761946E-3	3.780757E-3	1.712583E-3	1.189013E-3
10/19/2017  17:32:25.145716	1.273504E-1	3.867221E-3	5.156898E-3	6.015697E-3	3.791939E-3	1.977564E-3	3.283828E-3	9.087402E-4
10/19/2017  17:32:25.146716	2.129468E-1	5.048013E-3	1.260142E-3	6.228920E-3	7.673420E-3	2.576291E-3	6.769920E-5	1.483390E-3
10/19/2017  17:32:25.147716	2.286983E-2	5.132762E-3	1.027475E-2	4.720867E-3	4.987736E-3	5.084014E-3	8.975013E-3	1.191418E-3
10/19/2017  17:32:25.148716	1.613462E-1	3.600201E-3	8.456051E-4	1.242966E-2	3.472328E-3	2.562575E-3	2.035427E-3	1.241151E-3
10/19/2017  17:32:25.149716	8.783991E-2	1.278894E-2	4.878251E-4	1.332475E-4	7.281920E-3	9.336545E-3	3.072961E-3	7.625244E-4
10/19/2017  17:32:25.150716	7.845951E-2	4.067171E-3	4.124064E-3	1.073227E-4	1.108469E-3	2.367966E-3	6.627052E-3	2.521560E-3
10/19/2017  17:32:25.151716	2.624869E-1	3.381349E-3	1.378196E-3	4.619883E-3	7.092265E-3	4.939322E-3	8.382857E-3	3.643758E-3
10/19/2017  17:32:25.152716	3.790283E-1	4.390725E-3	3.117440E-3	7.671056E-3	2.326981E-4	2.958997E-3	2.772430E-3	4.393234E-3
10/19/2017  17:32:25.153716	2.979452E-1	5.495412E-3	1.017702E-4	1.209821E-2	6.920790E-3	2.018005E-3	4.414300E-3	5.704675E-3
10/19/2017  17:32:25.154716	5.525768E-2	4.746764E-3	4.590402E-3	8.784538E-3	9.616448E-3	3.097025E-3	7.892497E-3	4.382063E-3
10/19/2017  17:32:25.155716	1.640442E-1	1.104934E-3	7.499517E-3	6.138551E-3	8.942294E-3	6.664173E-3	5.175980E-3	2.787278E-3
10/19/2017  17:32:25.156716	2.807712E-1	1.586382E-3	5.048115E-3	1.119779E-2	7.151397E-3	4.018543E-3	1.002698E-2	1.147785E-2
10/19/2017  17:32:25.157716	2.461666E-1	3.469531E-3	7.788001E-3	5.787204E-4	3.323981E-3	9.365396E-3	4.240626E-3	1.260686E-2
								
10/19/2017  17:32:25.158716	2.959912E-1	6.118221E-3	8.070468E-3	6.874872E-3	3.871636E-3	4.514535E-3	1.005564E-2	2.301984E-3
10/19/2017  17:32:25.159716	4.433559E-2	2.383094E-3	2.891451E-3	2.439715E-3	6.313914E-3	7.867552E-3	1.299449E-3	8.596402E-3
10/19/2017  17:32:25.160716	2.327276E-1	1.941615E-3	2.298106E-3	5.218542E-3	4.149783E-4	1.303679E-3	3.535601E-3	5.613023E-3
10/19/2017  17:32:25.161716	8.892029E-2	5.865429E-3	5.583011E-4	2.803516E-4	1.660715E-3	3.484060E-3	3.805718E-4	7.037451E-3
10/19/2017  17:32:25.162716	1.172713E-1	1.942519E-3	3.876725E-3	1.068855E-2	5.211739E-3	6.768626E-3	1.102735E-2	3.484702E-3
10/19/2017  17:32:25.163716	3.281031E-1	5.308871E-3	8.246513E-3	3.663046E-4	3.336557E-3	4.480048E-3	3.426728E-3	7.283076E-3
10/19/2017  17:32:25.164716	2.022670E-1	2.649974E-3	5.810349E-3	4.991562E-3	9.391291E-3	3.900609E-3	7.257986E-3	1.067204E-3
10/19/2017  17:32:25.165716	3.475985E-2	6.089791E-3	3.771257E-3	1.300230E-2	3.650031E-4	3.334691E-3	1.086893E-3	3.457297E-3
10/19/2017  17:32:25.166716	4.210865E-1	2.535548E-3	4.389388E-3	9.154114E-4	2.510817E-3	6.569931E-4	1.230867E-3	4.240757E-3
10/19/2017  17:32:25.167716	5.345154E-1	8.668284E-3	1.658264E-2	7.834904E-3	3.940185E-3	1.600105E-2	6.670267E-4	5.273290E-3
10/19/2017  17:32:25.168716	4.740575E-1	1.054313E-2	3.479319E-3	3.514302E-3	4.773196E-3	4.724858E-3	8.423285E-3	1.437983E-3
10/19/2017  17:32:25.169716	3.148824E-1	5.884843E-3	4.839763E-3	7.220425E-3	5.699955E-3	1.876974E-2	1.642039E-3	3.583690E-3
10/19/2017  17:32:25.170716	8.493477E-1	1.532124E-2	7.342564E-3	3.069812E-3	1.085007E-2	6.782554E-3	7.646137E-3	5.922493E-4
10/19/2017  17:32:25.171716	6.135645E-1	6.655745E-3	4.953402E-3	9.018828E-5	5.405313E-3	1.082774E-2	1.039159E-3	5.956358E-4
10/19/2017  17:32:25.172716	1.562437E-1	4.932313E-3	1.000487E-2	1.919545E-3	1.178057E-2	5.767620E-3	8.096552E-3	3.721779E-3
10/19/2017  17:32:25.173716	4.610985E-1	5.165473E-3	3.082513E-3	9.712367E-3	6.327101E-3	1.110041E-2	7.829984E-3	1.509496E-4
10/19/2017  17:32:25.174716	9.213469E-1	2.914532E-3	4.184804E-3	3.195043E-4	8.723563E-3	3.305648E-3	1.386829E-3	8.945088E-3
10/19/2017  17:32:25.175716	6.213501E-1	2.712234E-5	2.725400E-3	1.146643E-3	2.465731E-3	4.650415E-3	8.009766E-3	2.157154E-3
10/19/2017  17:32:25.176716	2.397051E-1	2.175864E-3	6.467929E-4	6.111340E-3	3.918677E-3	1.019697E-2	1.654478E-3	9.302810E-3
10/19/2017  17:32:25.177716	1.449719E-1	1.501428E-3	3.087871E-3	5.174434E-3	4.771810E-3	7.706883E-4	2.984594E-3	2.317473E-3
10/19/2017  17:32:25.178716	8.559542E-2	3.380379E-3	2.580306E-3	2.170392E-3	5.684281E-3	6.076068E-3	2.458674E-3	1.061026E-2
10/19/2017  17:32:25.179716	1.504236E-2	2.429697E-3	3.816852E-5	4.282582E-3	8.656486E-3	5.151471E-5	1.059695E-2	1.168709E-3
10/19/2017  17:32:25.180716	3.469979E-2	2.688997E-3	2.580233E-4	8.323504E-4	6.907793E-3	1.410832E-4	3.012060E-3	5.293491E-3
10/19/2017  17:32:25.181716	1.700714E-1	2.190038E-4	5.999264E-3	4.441507E-3	4.887995E-4	4.512882E-3	2.629810E-3	6.119900E-4
10/19/2017  17:32:25.182716	4.817677E-4	2.014618E-3	6.026484E-4	1.852364E-3	4.169465E-3	1.195270E-3	8.774474E-3	7.002118E-3
10/19/2017  17:32:25.183716	1.087620E-2	7.904407E-4	1.401261E-2	1.740818E-2	5.175007E-3	1.203145E-3	8.758082E-3	3.836910E-3
10/19/2017  17:32:25.184716	5.894987E-2	3.694863E-3	7.195170E-3	1.281969E-2	8.432747E-4	7.167609E-3	1.535822E-3	7.163384E-3
10/19/2017  17:32:25.185716	1.034893E-1	4.582160E-3	1.026061E-2	2.329719E-2	7.325128E-3	4.021382E-3	3.782056E-3	1.570538E-3
10/19/2017  17:32:25.186716	1.943477E-1	2.819106E-3	7.231644E-3	4.764232E-3	3.007954E-3	9.786762E-3	5.324219E-3	7.806424E-3
10/19/2017  17:32:25.187716	1.952473E-1	7.264431E-3	6.126850E-3	1.412080E-2	8.908344E-3	4.878649E-3	1.104444E-2	1.013498E-3
10/19/2017  17:32:25.188716	4.266394E-2	8.750479E-4	1.760470E-3	3.268948E-3	2.272533E-4	1.183718E-2	7.925189E-3	9.490540E-3
10/19/2017  17:32:25.189716	2.531146E-1	1.884546E-4	5.151751E-3	2.613250E-3	6.809780E-3	4.239529E-4	1.910889E-2	4.102389E-5
10/19/2017  17:32:25.190716	2.974454E-1	2.507386E-3	5.665249E-3	1.113436E-2	6.071615E-3	1.142383E-2	8.249261E-3	8.951158E-3
								
10/19/2017  17:32:25.191716	3.600350E-1	6.521942E-3	8.939936E-3	4.783763E-3	2.085463E-3	5.998180E-4	1.681400E-2	4.402249E-3
10/19/2017  17:32:25.192716	4.297033E-2	3.826585E-3	1.259504E-4	7.334088E-3	9.552040E-3	7.085440E-3	8.016946E-3	1.295902E-3
10/19/2017  17:32:25.193716	2.287761E-3	4.620603E-3	4.047718E-3	6.366890E-3	2.348132E-3	6.359110E-4	1.046058E-2	1.129875E-3
10/19/2017  17:32:25.194716	2.528996E-2	1.015266E-2	6.118092E-3	5.222913E-3	3.519695E-3	4.054381E-3	1.207609E-3	5.816140E-3
10/19/2017  17:32:25.195716	4.405218E-2	9.085825E-4	8.860261E-3	4.417483E-3	2.328865E-3	5.695305E-3	5.259998E-3	4.563399E-3
10/19/2017  17:32:25.196716	7.502237E-2	6.743602E-4	4.698601E-3	4.030686E-3	1.413519E-5	1.027920E-2	7.157456E-3	1.117469E-3
10/19/2017  17:32:25.197716	1.562734E-1	1.340767E-2	3.012824E-3	7.835758E-3	5.042857E-4	1.068800E-2	1.507443E-3	5.156093E-3
10/19/2017  17:32:25.198716	1.284421E-1	3.244627E-4	4.090031E-3	2.701101E-3	9.550201E-3	1.671053E-2	9.254101E-4	8.211513E-4
10/19/2017  17:32:25.199716	1.608493E-2	1.566866E-2	3.994445E-3	3.647832E-3	3.827675E-3	8.453013E-4	3.867504E-3	7.943797E-4
10/19/2017  17:32:25.200716	2.123659E-1	3.700780E-3	7.507565E-3	1.316903E-2	4.033965E-3	1.300203E-4	6.916072E-4	3.555883E-3
10/19/2017  17:32:25.201716	2.818269E-1	2.337054E-3	5.413076E-3	1.174030E-2	1.384328E-2	2.601714E-3	5.460174E-4	2.139154E-3
10/19/2017  17:32:25.202716	2.171353E-1	9.547222E-4	1.501365E-3	9.294014E-3	1.398949E-3	6.656828E-3	8.201317E-3	6.175204E-3
10/19/2017  17:32:25.203716	6.945260E-1	3.145103E-3	1.004541E-2	1.051911E-2	1.237052E-2	1.491059E-3	1.011973E-3	8.453249E-3
10/19/2017  17:32:25.204716	4.109187E-1	1.578977E-3	1.533769E-3	9.141009E-3	6.226942E-3	7.919855E-4	7.646817E-3	3.011194E-3
10/19/2017  17:32:25.205716	1.359909E-1	8.323995E-3	5.493962E-3	5.316217E-3	4.161790E-3	6.250119E-3	1.315425E-3	1.116246E-2
10/19/2017  17:32:25.206716	3.412220E-1	8.652886E-3	2.706468E-3	2.421815E-2	8.381238E-3	4.573061E-3	7.605967E-3	7.439203E-4
10/19/2017  17:32:25.207716	4.777568E-1	2.278861E-3	1.065305E-2	2.132962E-3	6.248432E-3	5.306165E-3	7.069749E-4	2.009151E-2
10/19/2017  17:32:25.208716	5.330804E-1	7.544729E-4	1.413802E-3	3.737114E-3	1.076706E-4	1.242294E-3	2.134018E-3	5.782706E-3
10/19/2017  17:32:25.209716	2.146737E-1	7.230045E-3	3.601471E-3	1.759914E-3	2.167206E-3	3.707668E-4	5.621916E-3	1.557198E-2
10/19/2017  17:32:25.210716	4.369608E-2	1.398987E-3	5.751778E-3	1.428126E-2	1.375774E-3	1.111953E-2	1.948966E-3	1.822814E-3
10/19/2017  17:32:25.211716	8.733620E-2	3.252898E-3	5.701199E-3	1.195423E-2	5.767602E-3	1.644287E-3	3.520874E-3	3.484481E-3
10/19/2017  17:32:25.212716	1.063653E-2	2.293739E-3	7.623287E-3	2.070725E-3	4.165520E-3	9.316252E-4	5.180033E-3	8.425935E-3
10/19/2017  17:32:25.213716	6.520695E-1	3.658873E-3	1.261426E-2	3.066736E-3	6.463366E-4	2.741027E-3	1.843654E-3	1.488531E-3
10/19/2017  17:32:25.214716	6.394391E-1	2.304960E-3	5.942630E-3	6.641124E-3	6.266291E-3	4.096823E-4	7.108991E-3	1.454948E-3
10/19/2017  17:32:25.215716	3.914776E-2	3.116167E-3	1.254015E-2	1.895835E-3	4.179392E-3	4.833586E-3	4.051245E-3	7.682486E-4
10/19/2017  17:32:25.216716	7.770654E-1	2.581687E-3	7.093034E-3	1.489930E-3	6.833823E-4	5.149966E-3	7.609656E-3	4.449868E-3
10/19/2017  17:32:25.217716	3.487529E-1	2.088720E-3	5.850902E-3	1.021922E-3	2.814060E-4	3.014135E-3	1.190961E-3	1.793750E-3
10/19/2017  17:32:25.218716	1.783160E-1	4.837461E-3	2.567908E-3	5.865576E-3	2.122474E-3	2.287770E-3	3.505919E-3	1.058767E-2
10/19/2017  17:32:25.219716	4.578135E-2	3.354242E-3	1.080393E-4	2.408293E-3	1.003111E-3	5.003293E-4	8.359100E-3	1.362606E-3
10/19/2017  17:32:25.220716	2.555025E-1	4.725847E-4	9.145571E-3	6.856756E-3	5.417143E-3	2.490539E-3	3.541274E-3	7.485645E-3
10/19/2017  17:32:25.221716	3.058676E-2	7.009792E-3	2.049847E-3	2.390772E-3	9.722773E-3	2.666811E-3	8.779174E-3	1.625445E-3
10/19/2017  17:32:25.222716	2.272471E-1	2.743072E-3	2.919395E-3	9.616928E-3	1.427063E-3	6.256803E-3	4.350578E-3	8.152337E-3
10/19/2017  17:32:25.223716	3.361049E-1	4.953618E-4	6.336528E-3	1.593549E-3	7.188321E-4	1.008597E-4	5.486724E-3	1.706345E-3
								
10/19/2017  17:32:25.224716	3.906223E-1	5.010588E-3	1.816383E-4	5.259869E-3	1.066231E-2	4.709070E-3	1.501521E-3	5.170916E-3
10/19/2017  17:32:25.225716	4.493069E-1	5.641868E-4	4.931660E-3	7.489687E-3	5.383131E-3	7.968530E-4	1.011126E-2	9.151848E-4
10/19/2017  17:32:25.226716	3.402289E-1	1.953734E-3	2.615073E-3	1.202652E-2	1.384799E-2	1.770817E-3	2.931150E-3	1.203840E-3
10/19/2017  17:32:25.227716	2.385137E-1	2.769927E-3	5.712815E-3	2.561561E-3	1.115511E-3	3.556023E-3	2.373601E-3	1.660707E-3
10/19/2017  17:32:25.228716	7.391024E-1	3.853242E-3	1.034780E-3	8.669439E-3	1.244002E-2	4.684703E-3	6.086090E-3	3.663855E-3
10/19/2017  17:32:25.229716	1.003185E+0	2.067083E-3	1.241497E-2	8.912242E-3	4.304546E-3	9.534971E-4	8.797812E-3	2.784695E-3
10/19/2017  17:32:25.230716	6.709342E-1	4.130168E-3	1.492699E-3	4.633372E-4	3.966815E-3	1.043547E-2	2.984900E-4	4.460848E-3
10/19/2017  17:32:25.231716	3.695542E-1	1.151564E-3	2.755128E-3	1.371458E-2	9.796143E-3	5.209059E-3	8.998806E-3	3.471986E-3
10/19/2017  17:32:25.232716	1.125798E-1	3.171730E-3	5.155001E-3	1.035769E-3	5.900113E-4	9.615573E-3	2.666972E-4	3.845789E-4
10/19/2017  17:32:25.233716	3.396320E-2	3.746517E-4	6.344638E-3	2.328056E-2	3.894743E-3	6.917201E-3	1.127279E-2	1.870232E-3
10/19/2017  17:32:25.234716	1.979247E-1	2.956126E-3	1.701859E-3	1.354403E-3	3.887386E-3	1.046719E-2	5.046800E-3	7.736729E-3
10/19/2017  17:32:25.235716	3.827377E-1	4.718489E-3	1.238301E-3	6.146389E-3	6.717079E-4	7.399568E-3	3.623928E-3	3.512933E-3
10/19/2017  17:32:25.236716	6.255027E-2	2.839408E-3	3.162864E-3	2.900278E-3	1.669199E-3	3.815280E-3	2.622326E-4	2.834815E-3
10/19/2017  17:32:25.237716	5.296635E-1	5.032719E-4	6.793279E-3	2.639461E-3	1.106934E-3	3.121940E-3	2.122668E-3	4.379349E-3
10/19/2017  17:32:25.238716	1.816314E-1	5.070261E-3	5.772848E-3	4.529162E-3	1.526020E-3	3.493112E-4	1.178125E-3	9.612754E-4
10/19/2017  17:32:25.239716	6.069276E-1	3.821652E-3	2.733839E-3	3.545135E-3	1.201196E-3	5.173908E-4	1.119459E-2	1.568545E-3
10/19/2017  17:32:25.240716	3.070182E-1	5.818375E-4	1.306984E-2	4.840039E-3	3.407328E-3	2.793596E-3	3.751237E-3	3.132529E-3
10/19/2017  17:32:25.241716	1.110176E+0	1.795321E-3	4.776653E-3	3.103788E-3	6.511550E-5	2.159101E-3	1.226749E-2	1.323072E-4
10/19/2017  17:32:25.242716	7.068517E-1	3.034096E-3	7.950838E-3	6.538352E-3	6.289281E-3	1.566215E-2	6.281727E-4	3.565115E-4
10/19/2017  17:32:25.243716	9.094426E-1	2.283057E-3	8.165688E-3	6.810041E-5	1.119052E-2	4.638042E-3	8.768882E-4	1.617786E-3
10/19/2017  17:32:25.244716	1.222627E-1	3.871962E-3	5.808001E-3	4.609709E-3	3.814965E-3	8.306067E-3	3.196816E-3	1.395883E-3
10/19/2017  17:32:25.245716	8.825603E-1	8.100347E-3	3.835939E-3	5.612286E-3	4.871199E-4	1.963616E-3	2.577236E-3	7.692806E-4
10/19/2017  17:32:25.246716	1.289349E+0	9.421614E-4	4.268454E-3	4.205056E-4	4.111459E-3	5.239043E-4	2.014348E-3	8.546406E-3
10/19/2017  17:32:25.247716	7.442868E-1	7.448728E-3	1.298747E-3	2.613537E-3	5.738355E-3	6.350201E-3	3.664607E-3	1.940879E-3
10/19/2017  17:32:25.248716	5.074027E-1	1.136269E-3	5.199415E-3	2.236551E-4	6.060882E-3	2.366711E-3	3.969646E-3	9.370446E-3
10/19/2017  17:32:25.249716	2.157767E-1	7.254316E-3	9.728294E-4	1.951662E-2	7.008501E-3	7.997150E-3	6.777611E-4	4.526523E-3
10/19/2017  17:32:25.250716	2.798212E-2	5.971217E-3	2.157191E-3	2.201686E-3	9.923638E-4	2.996927E-3	8.179945E-3	5.726480E-3
10/19/2017  17:32:25.251716	1.828336E-1	2.302072E-3	1.083153E-2	8.323031E-3	3.358427E-3	8.205175E-4	9.831601E-3	4.449732E-3
10/19/2017  17:32:25.252716	1.825367E-1	4.280147E-4	1.475549E-3	1.562798E-2	1.867441E-4	3.620141E-3	6.768655E-3	1.391780E-3
10/19/2017  17:32:25.253716	1.676491E-1	4.518580E-3	1.136589E-3	1.158978E-2	2.771449E-3	9.869717E-3	1.202382E-2	9.227012E-4
10/19/2017  17:32:25.254716	1.789438E-1	2.913841E-3	8.188098E-4	1.671938E-3	1.949570E-3	1.137311E-3	4.516856E-3	2.527815E-3
10/19/2017  17:32:25.255716	5.474213E-2	4.893585E-3	5.248798E-4	3.067095E-3	1.208562E-2	1.822610E-3	1.077477E-3	1.381955E-3
10/19/2017  17:32:25.256716	1.511160E-2	8.171716E-3	2.416341E-3	1.771191E-2	2.150212E-3	2.566613E-3	7.122418E-4	6.018186E-3
								
10/19/2017  17:32:25.257716	1.505329E-1	2.781197E-3	7.945203E-3	2.693898E-3	7.164286E-3	5.226109E-3	8.215139E-3	3.040631E-4
10/19/2017  17:32:25.258716	1.216403E-1	4.062693E-3	2.855863E-3	2.808374E-2	4.866738E-3	1.999757E-3	5.619087E-3	1.651739E-3
10/19/2017  17:32:25.259716	2.257425E-2	4.660086E-4	1.033525E-3	8.977008E-3	5.713412E-3	8.241699E-3	3.027872E-3	1.349370E-3
10/19/2017  17:32:25.260716	1.444278E-1	2.145514E-3	1.036769E-2	7.255611E-3	4.462540E-3	3.722503E-3	1.348420E-2	5.623528E-3
10/19/2017  17:32:25.261716	1.281713E-1	7.569223E-3	5.895541E-3	5.743130E-3	1.221969E-3	6.205475E-3	3.320723E-3	8.443803E-3
10/19/2017  17:32:25.262716	3.835154E-1	8.710229E-4	2.453834E-3	4.423948E-3	3.177014E-3	6.616702E-3	1.095338E-2	2.895228E-3
10/19/2017  17:32:25.263716	4.721454E-1	6.050806E-3	6.373471E-3	3.282968E-3	2.044364E-3	4.186477E-3	3.502558E-3	2.337166E-3
10/19/2017  17:32:25.264716	3.635669E-1	2.118417E-3	2.767173E-4	2.305619E-3	1.376786E-3	3.145528E-3	9.480871E-3	1.864559E-3
10/19/2017  17:32:25.265716	9.751358E-2	2.991446E-3	1.276611E-2	6.822579E-4	5.671137E-3	2.073976E-3	4.738787E-3	6.906339E-4
10/19/2017  17:32:25.266716	8.243341E-1	1.071157E-2	4.268622E-3	3.655480E-3	8.983289E-3	3.589747E-3	7.535010E-3	3.118233E-4
10/19/2017  17:32:25.267716	4.519500E-1	1.017445E-2	5.105036E-5	4.221147E-3	1.800309E-3	1.491035E-2	5.243821E-3	2.165654E-3
10/19/2017  17:32:25.268716	3.421575E-1	1.183817E-2	1.170152E-2	1.088409E-3	9.980792E-3	1.615896E-3	7.455748E-3	3.879255E-3
10/19/2017  17:32:25.269716	3.340496E-1	9.093868E-3	2.413343E-4	1.199691E-2	7.149762E-4	1.456967E-2	9.878446E-4	1.523292E-3
10/19/2017  17:32:25.270716	6.654262E-1	1.296207E-2	1.514644E-3	7.261579E-3	3.828619E-3	2.468740E-3	4.860887E-3	1.145468E-3
10/19/2017  17:32:25.271716	4.233383E-1	8.631678E-3	8.118423E-3	1.410287E-3	3.896889E-3	1.244935E-2	1.219942E-3	1.288508E-3
10/19/2017  17:32:25.272716	1.158203E-1	4.408273E-3	6.057850E-3	4.985126E-3	9.282210E-3	2.570328E-3	7.723166E-3	2.966376E-3
10/19/2017  17:32:25.273716	1.084297E-1	1.191245E-3	4.358815E-3	3.652046E-3	8.930075E-3	1.117927E-2	3.048443E-3	2.462754E-3
10/19/2017  17:32:25.274716	2.004577E-3	1.394358E-2	3.042078E-3	1.191910E-2	2.138405E-3	4.676625E-3	8.511915E-3	4.127418E-3
10/19/2017  17:32:25.275716	2.906202E-3	8.805723E-4	1.099505E-2	6.587184E-5	5.665588E-3	2.893645E-3	7.382941E-3	8.333600E-4
10/19/2017  17:32:25.276716	5.104752E-2	1.077648E-2	5.451937E-3	1.670775E-4	3.583277E-3	1.152414E-2	9.096357E-4	1.573140E-3
10/19/2017  17:32:25.277716	2.315766E-1	5.757689E-3	9.652799E-3	4.548203E-3	8.955020E-3	4.139123E-3	3.572189E-4	3.228576E-3
10/19/2017  17:32:25.278716	7.581172E-2	6.754766E-3	5.770499E-3	3.157331E-3	2.472605E-3	5.686187E-3	2.224981E-3	2.218917E-3
10/19/2017  17:32:25.279716	9.639089E-2	3.430551E-4	7.915801E-3	4.503848E-3	4.447725E-3	4.538269E-4	6.145643E-3	4.181704E-4
10/19/2017  17:32:25.280716	2.555307E-1	1.078042E-2	6.108869E-3	7.685842E-3	3.784751E-3	9.182834E-3	2.200349E-3	6.351364E-3
10/19/2017  17:32:25.281716	2.442720E-1	1.138355E-3	1.602212E-2	3.329134E-3	9.569007E-3	6.402100E-3	2.931352E-3	6.618275E-3
10/19/2017  17:32:25.282716	3.012522E-1	7.536511E-3	1.280143E-3	1.110726E-2	2.478238E-3	8.890123E-3	2.106108E-3	6.471713E-3
10/19/2017  17:32:25.283716	8.231380E-3	1.143623E-3	5.018639E-3	9.756451E-3	4.929061E-3	1.284443E-2	5.602741E-3	6.993796E-3
10/19/2017  17:32:25.284716	1.575502E-1	9.502230E-3	5.513201E-3	2.763616E-3	5.088419E-3	4.104419E-3	7.292826E-3	2.732182E-3
10/19/2017  17:32:25.285716	3.726949E-1	8.678971E-3	4.239556E-3	6.707716E-3	5.552826E-3	1.973877E-2	1.413524E-2	9.116308E-3
10/19/2017  17:32:25.286716	9.473845E-2	4.125053E-3	9.814382E-3	2.398037E-3	3.070416E-3	1.015903E-2	9.631354E-3	3.238446E-5
10/19/2017  17:32:25.287716	1.468782E-1	7.981388E-3	1.767804E-5	3.015894E-3	1.135735E-2	5.838985E-3	1.335815E-2	6.629813E-3
10/19/2017  17:32:25.288716	3.900565E-3	7.693573E-3	6.080344E-4	8.976733E-3	2.643948E-3	6.306455E-3	8.352680E-3	1.877383E-3
10/19/2017  17:32:25.289716	6.892527E-2	8.014462E-3	1.403912E-2	8.856856E-5	8.267107E-3	4.454855E-3	6.398636E-3	7.927890E-3
								
10/19/2017  17:32:25.290716	3.634051E-3	6.044371E-3	1.488177E-3	6.613789E-3	1.084897E-3	5.250159E-3	3.902601E-3	1.040478E-3
10/19/2017  17:32:25.291716	2.023211E-2	1.290878E-2	5.471091E-3	1.952762E-4	1.068167E-2	5.295226E-3	3.262742E-4	5.316296E-3
10/19/2017  17:32:25.292716	1.747755E-2	4.282326E-3	2.720017E-3	1.416994E-4	7.738563E-4	4.033458E-3	4.456476E-3	2.629286E-3
10/19/2017  17:32:25.293716	1.718752E-2	1.866609E-2	2.011258E-3	2.566648E-3	2.479365E-3	7.260304E-3	1.249712E-3	3.904588E-3
10/19/2017  17:32:25.294716	5.681377E-3	2.057497E-3	5.083461E-3	4.218248E-3	7.247419E-3	9.227634E-3	3.258412E-3	8.329630E-3
10/19/2017  17:32:25.295716	4.783497E-3	1.260759E-2	2.991910E-3	1.257651E-3	3.112010E-3	1.142587E-2	2.296349E-3	4.995410E-4
10/19/2017  17:32:25.296716	4.206667E-2	1.948675E-3	6.504631E-3	1.340915E-3	1.844683E-5	7.307996E-5	1.897507E-3	6.836540E-3
10/19/2017  17:32:25.297716	1.301091E-1	1.450871E-2	7.059274E-5	3.328137E-3	4.453159E-3	4.639490E-3	2.778008E-3	2.797948E-4
10/19/2017  17:32:25.298716	2.622329E-2	3.041010E-3	6.766682E-3	6.530168E-3	5.530664E-3	1.371288E-3	3.842772E-3	2.324147E-3
10/19/2017  17:32:25.299716	3.881356E-2	9.112730E-3	6.102515E-4	8.774276E-3	1.245147E-2	7.604892E-3	6.386313E-3	6.276435E-3
10/19/2017  17:32:25.300716	7.612058E-3	1.424870E-4	2.643520E-3	4.292966E-3	1.348212E-2	1.212120E-3	4.853094E-3	2.073050E-4
10/19/2017  17:32:25.301716	2.387474E-2	6.313998E-3	2.484474E-3	7.774908E-3	1.427905E-2	3.206131E-3	2.944715E-3	2.019896E-3
10/19/2017  17:32:25.302716	2.139875E-2	2.300294E-3	6.053675E-3	5.498812E-3	5.280430E-3	2.346213E-3	1.953730E-3	7.830516E-4
10/19/2017  17:32:25.303716	1.132044E-1	2.051448E-4	1.838349E-3	1.849537E-3	1.836497E-3	5.407527E-4	3.171625E-3	2.764117E-3
10/19/2017  17:32:25.304716	8.731655E-2	1.878745E-4	7.309960E-3	3.449225E-3	7.160163E-4	3.875515E-3	4.562241E-3	2.625866E-4
10/19/2017  17:32:25.305716	4.858758E-2	5.982820E-3	4.522421E-5	8.539545E-3	3.480781E-4	2.546392E-3	3.182465E-3	6.761678E-3
10/19/2017  17:32:25.306716	2.244252E-1	2.844342E-3	1.175572E-2	1.678931E-2	4.271748E-3	2.872928E-3	4.462271E-3	1.820512E-3
10/19/2017  17:32:25.307716	1.399019E-1	1.128027E-2	6.822078E-3	1.265007E-2	9.141578E-4	2.354422E-3	3.319755E-3	7.926165E-3
10/19/2017  17:32:25.308716	1.029347E-2	1.750304E-3	3.493050E-3	1.171831E-2	5.880398E-3	1.105965E-2	2.360713E-3	5.320646E-3
10/19/2017  17:32:25.309716	3.714780E-1	9.512776E-3	6.539516E-3	2.447402E-3	8.972712E-3	1.415061E-3	3.723586E-3	3.837849E-3
10/19/2017  17:32:25.310716	2.273651E-1	6.569496E-3	9.158028E-3	6.069948E-3	6.267658E-3	1.686835E-2	4.105818E-3	6.042243E-3
10/19/2017  17:32:25.311716	6.609732E-2	1.570561E-2	4.123904E-3	6.722535E-3	1.115183E-2	7.815462E-3	5.247115E-3	4.241453E-3
10/19/2017  17:32:25.312716	3.764407E-1	4.370642E-3	8.379412E-3	3.818926E-3	8.065437E-3	7.726610E-3	2.815006E-3	5.909231E-3
10/19/2017  17:32:25.313716	2.201046E-1	3.573540E-3	1.924121E-3	1.720300E-3	9.683685E-3	1.326717E-3	4.193349E-3	1.793283E-5
10/19/2017  17:32:25.314716	4.282169E-1	1.436771E-3	6.276887E-4	9.945345E-3	1.773627E-3	3.325957E-3	1.475669E-3	8.530180E-3
10/19/2017  17:32:25.315716	9.365177E-2	2.777500E-3	4.572753E-3	4.062039E-3	1.211259E-2	8.607972E-3	5.490870E-3	3.469605E-3
10/19/2017  17:32:25.316716	1.624049E-1	2.913502E-3	7.949707E-3	1.044655E-3	6.985729E-3	1.704948E-3	2.672669E-3	1.118409E-2
10/19/2017  17:32:25.317716	8.031410E-2	4.573118E-4	1.512901E-3	1.021224E-3	9.631301E-3	1.198913E-2	4.132987E-3	6.154847E-3
10/19/2017  17:32:25.318716	2.300375E-1	9.914823E-3	3.298199E-3	9.912491E-4	4.052191E-3	2.457150E-3	6.862357E-4	8.533948E-3
10/19/2017  17:32:25.319716	1.508955E-1	6.889900E-3	4.431665E-3	1.205157E-3	5.076304E-3	1.061873E-2	8.303008E-3	9.355180E-3
10/19/2017  17:32:25.320716	1.002318E-1	1.228047E-2	3.611864E-3	2.698358E-3	9.165862E-4	9.021828E-4	7.234180E-4	8.863812E-3
10/19/2017  17:32:25.321716	2.912923E-1	2.691333E-3	7.097652E-3	2.873863E-3	5.204855E-3	3.996519E-3	7.219709E-3	1.596948E-3
10/19/2017  17:32:25.322716	1.620927E-1	4.309919E-3	1.519236E-3	1.842812E-3	4.925526E-3	7.354290E-3	1.365802E-3	1.455636E-2
								
10/19/2017  17:32:25.323716	2.081304E-2	3.360318E-3	3.349302E-3	3.530508E-3	3.335770E-3	1.369081E-3	5.324095E-3	3.546515E-4
10/19/2017  17:32:25.324716	1.141588E-1	4.215370E-3	1.992060E-4	1.159859E-2	1.745497E-2	3.293810E-3	1.439123E-3	1.107364E-2
10/19/2017  17:32:25.325716	4.878011E-2	8.321107E-4	7.936123E-5	2.557976E-3	1.320893E-3	1.932060E-3	5.772331E-3	3.327860E-3
10/19/2017  17:32:25.326716	3.736089E-2	3.822580E-3	1.374969E-5	4.003098E-3	3.917296E-3	5.592550E-3	6.408688E-3	4.953044E-3
10/19/2017  17:32:25.327716	9.490616E-2	2.698534E-3	4.402708E-3	7.017640E-3	7.558327E-3	2.852152E-3	8.532174E-3	1.606062E-3
10/19/2017  17:32:25.328716	6.115541E-2	4.705912E-3	8.751958E-4	1.060225E-2	1.204456E-3	8.838797E-3	5.247616E-4	5.180366E-3
10/19/2017  17:32:25.329716	2.328750E-2	1.177837E-3	4.755505E-3	9.858735E-3	3.417518E-3	2.353341E-3	7.041785E-3	9.620298E-3
10/19/2017  17:32:25.330716	2.498642E-2	3.597625E-3	1.213753E-2	6.276629E-3	1.073328E-2	8.144868E-3	8.003617E-3	3.896062E-3
10/19/2017  17:32:25.331716	1.498772E-1	6.060928E-3	2.163276E-3	1.908143E-2	1.211350E-3	9.667594E-3	3.357588E-3	4.963411E-4
10/19/2017  17:32:25.332716	1.567294E-1	6.715375E-3	2.971679E-3	1.328968E-2	9.780090E-3	4.821445E-4	8.804151E-3	1.061818E-2
10/19/2017  17:32:25.333716	6.391804E-3	2.680254E-3	4.252196E-3	1.230634E-2	6.134148E-3	8.313246E-3	2.073529E-3	3.010715E-3
10/19/2017  17:32:25.334716	7.593335E-2	1.545056E-2	5.876529E-3	8.377575E-3	2.170544E-3	9.495509E-3	1.445561E-3	9.123379E-3
10/19/2017  17:32:25.335716	3.620992E-1	6.775683E-3	4.274698E-3	3.060887E-3	9.449217E-3	1.850289E-3	9.161861E-4	2.362965E-3
10/19/2017  17:32:25.336716	3.689997E-1	1.604679E-2	1.219941E-2	1.119078E-2	2.232144E-3	7.778598E-3	4.759146E-4	4.763047E-3
10/19/2017  17:32:25.337716	1.657121E-1	8.225582E-3	4.053541E-3	1.413876E-3	9.586575E-3	3.437793E-3	6.357004E-3	5.448368E-3
10/19/2017  17:32:25.338716	6.121531E-2	3.747873E-3	2.043803E-3	5.712937E-3	2.524359E-3	4.907074E-3	2.363104E-3	1.769948E-3
10/19/2017  17:32:25.339716	3.183406E-1	6.139475E-3	1.071222E-2	2.043893E-4	1.350587E-2	1.432500E-3	4.945664E-3	7.437869E-3
10/19/2017  17:32:25.340716	1.782958E-1	2.195428E-3	5.690289E-3	2.291432E-3	1.452998E-2	5.455859E-3	7.276199E-3	1.393573E-3
10/19/2017  17:32:25.341716	2.508713E-2	7.226543E-3	4.673830E-3	6.408676E-4	5.929545E-3	4.949612E-3	6.279932E-4	7.711038E-3
10/19/2017  17:32:25.342716	1.310664E-1	2.881483E-3	5.344032E-3	2.736006E-3	7.061087E-3	1.653577E-2	6.372313E-3	3.275207E-3
10/19/2017  17:32:25.343716	5.688521E-1	1.335639E-2	7.977336E-3	1.949277E-4	1.179722E-2	1.046192E-2	2.504836E-3	1.088157E-2
10/19/2017  17:32:25.344716	1.438535E-1	6.952777E-4	5.655217E-3	2.294731E-3	6.976065E-3	5.733153E-3	4.713264E-3	5.468993E-3
10/19/2017  17:32:25.345716	2.740088E-1	1.927057E-2	2.305230E-3	3.694059E-3	5.042469E-3	6.542764E-3	1.095632E-3	7.344568E-3
10/19/2017  17:32:25.346716	1.561809E-1	3.700908E-4	1.750441E-4	1.906989E-4	7.408719E-3	4.375460E-3	7.393685E-3	1.152025E-3
10/19/2017  17:32:25.347716	3.319915E-1	8.995125E-3	2.411092E-4	2.370797E-3	3.055791E-3	3.435670E-3	5.682633E-3	9.692306E-4
10/19/2017  17:32:25.348716	2.637465E-1	2.569158E-4	1.594444E-3	1.871780E-4	1.926860E-3	4.617661E-4	2.529572E-4	5.116853E-3
10/19/2017  17:32:25.349716	1.881420E-2	2.610112E-3	6.431291E-4	4.483621E-3	5.322206E-3	4.689965E-4	6.668706E-3	3.544080E-3
10/19/2017  17:32:25.350716	1.508709E-1	6.359116E-3	6.596547E-3	9.856795E-4	1.180473E-3	6.937292E-3	4.141171E-3	2.094766E-3
10/19/2017  17:32:25.351716	3.037365E-1	1.289961E-4	7.428791E-4	1.609675E-3	1.540353E-3	1.683136E-3	1.391680E-2	3.931267E-3
10/19/2017  17:32:25.352716	1.454099E-1	6.539199E-3	1.212387E-2	9.890376E-3	2.542116E-3	3.514613E-3	9.904384E-3	2.934067E-3
10/19/2017  17:32:25.353716	1.511514E-1	6.222143E-3	8.111789E-4	1.054414E-2	5.514329E-3	8.270127E-3	7.307572E-4	4.244987E-3
10/19/2017  17:32:25.354716	1.252911E-1	9.371257E-6	1.879722E-2	1.625160E-2	8.954037E-3	3.402760E-3	5.906884E-3	1.492454E-3
10/19/2017  17:32:25.355716	4.921115E-2	6.642096E-3	6.803434E-4	1.960221E-3	2.272555E-4	8.939571E-3	2.543093E-3	7.378680E-3
								
10/19/2017  17:32:25.356716	4.789557E-2	2.498228E-3	1.607471E-3	2.152942E-2	3.896381E-3	8.818166E-3	4.214120E-3	2.602231E-3
10/19/2017  17:32:25.357716	7.018516E-2	7.088819E-3	7.606056E-3	8.485376E-5	4.145338E-3	1.110143E-2	9.136956E-4	1.011690E-3
10/19/2017  17:32:25.358716	1.256370E-1	3.597921E-3	3.066235E-3	2.426519E-3	9.757317E-3	5.501105E-3	1.014087E-2	5.787300E-3
10/19/2017  17:32:25.359716	9.557695E-3	6.813292E-3	9.032745E-3	8.469664E-3	4.676627E-3	1.393471E-2	3.956568E-3	4.691877E-3
10/19/2017  17:32:25.360716	1.534144E-1	1.623681E-4	2.252595E-3	5.265044E-4	7.902706E-3	7.224575E-3	1.395245E-2	6.016098E-4
10/19/2017  17:32:25.361716	2.966979E-1	8.985724E-3	1.135204E-2	1.131383E-2	3.662847E-3	7.005617E-3	1.078939E-3	4.886334E-5
10/19/2017  17:32:25.362716	1.728417E-1	4.249261E-3	3.308739E-3	3.052354E-3	1.035049E-2	4.309099E-3	6.126166E-3	4.689141E-3
10/19/2017  17:32:25.363716	2.341882E-1	4.941485E-3	2.708736E-3	8.964817E-3	4.776932E-3	7.990477E-3	2.802257E-4	3.578764E-3
10/19/2017  17:32:25.364716	3.129739E-1	9.923707E-3	4.836975E-3	2.013735E-3	6.023652E-3	3.823185E-3	2.555162E-3	4.487967E-4
10/19/2017  17:32:25.365716	2.032879E-1	5.078569E-3	8.373345E-3	7.423037E-3	9.274429E-3	2.804947E-3	2.378906E-3	4.001378E-3
10/19/2017  17:32:25.366716	2.443736E-1	7.816641E-3	4.542218E-3	1.236442E-3	1.039871E-2	6.707573E-3	2.827295E-3	1.601325E-3
10/19/2017  17:32:25.367716	1.085454E-1	1.220109E-2	1.517837E-3	5.258488E-3	2.395677E-3	1.264531E-2	8.621519E-3	5.554602E-3
10/19/2017  17:32:25.368716	4.759948E-3	1.098179E-2	5.851536E-3	9.378058E-3	1.654107E-2	4.388584E-3	4.870462E-3	1.646678E-3
10/19/2017  17:32:25.369716	2.263903E-1	7.679069E-3	2.249570E-3	6.524351E-3	3.506872E-3	6.137370E-3	3.587533E-3	3.442000E-3
10/19/2017  17:32:25.370716	1.315001E-1	5.671510E-3	4.758076E-3	8.825674E-3	1.251622E-2	4.861881E-3	1.818580E-3	2.669856E-3
10/19/2017  17:32:25.371716	9.488049E-2	3.607563E-4	1.226552E-3	6.158233E-5	4.682098E-3	5.557918E-4	1.318435E-3	4.456343E-3
10/19/2017  17:32:25.372716	1.014512E-1	4.709328E-3	7.659534E-3	1.104345E-2	1.040860E-2	2.238986E-3	3.417604E-3	1.443366E-3
10/19/2017  17:32:25.373716	5.251724E-2	9.631245E-3	1.142989E-3	7.490866E-3	7.581033E-3	7.485416E-3	4.508236E-3	5.665782E-3
10/19/2017  17:32:25.374716	2.847314E-1	6.346471E-5	1.009814E-2	5.389388E-3	7.806163E-3	5.539039E-3	1.408787E-3	1.278952E-2
10/19/2017  17:32:25.375716	5.030271E-1	9.032866E-3	3.868507E-3	1.797995E-2	5.567092E-3	2.589628E-3	9.949349E-3	1.074253E-2
10/19/2017  17:32:25.376716	2.249249E-1	2.245325E-3	7.280714E-3	1.555716E-3	4.959805E-3	4.010040E-3	3.771455E-3	5.624525E-3
10/19/2017  17:32:25.377716	6.642977E-2	1.137297E-2	5.072491E-3	1.472569E-2	5.825824E-3	3.795559E-3	2.696047E-3	2.652313E-3
10/19/2017  17:32:25.378716	3.826839E-2	1.203739E-3	5.428566E-3	1.118310E-4	4.654735E-3	7.092773E-3	6.838371E-3	4.196773E-3
10/19/2017  17:32:25.379716	2.635488E-1	8.385815E-3	8.461778E-3	1.726102E-2	3.354547E-3	1.665489E-3	6.912302E-3	7.824677E-3
10/19/2017  17:32:25.380716	1.657379E-1	4.153515E-3	9.166403E-3	2.845512E-3	6.383547E-3	3.604086E-3	8.489667E-3	7.641797E-3
10/19/2017  17:32:25.381716	5.967110E-2	7.703304E-3	1.985306E-3	2.719890E-2	4.432882E-3	1.624799E-3	4.117631E-3	3.335876E-3
10/19/2017  17:32:25.382716	2.050078E-3	5.721070E-3	1.195489E-2	4.420435E-3	8.032155E-3	9.845047E-4	3.528082E-3	4.238560E-3
10/19/2017  17:32:25.383716	1.256085E-2	6.516929E-3	4.185906E-3	1.406509E-3	3.689028E-3	2.617214E-3	1.318050E-2	7.341307E-3
10/19/2017  17:32:25.384716	9.214012E-3	4.000359E-3	7.024015E-3	3.411433E-3	6.089020E-3	9.307415E-3	6.409959E-3	3.735700E-3
10/19/2017  17:32:25.385716	3.899441E-2	5.873733E-3	6.413075E-3	1.756262E-3	1.473941E-4	2.370197E-3	7.333786E-3	1.380196E-3
10/19/2017  17:32:25.386716	7.096301E-2	6.723125E-3	9.357692E-3	3.211927E-3	4.659275E-3	4.901979E-3	3.378901E-3	7.978700E-3
10/19/2017  17:32:25.387716	6.617742E-2	2.541809E-3	1.898871E-3	2.404499E-3	9.412155E-4	3.033374E-3	3.929573E-3	2.903856E-3
10/19/2017  17:32:25.388716	9.096054E-2	4.912878E-3	9.514437E-3	8.537815E-3	3.736550E-3	1.292230E-2	3.945364E-3	4.126966E-3
								
10/19/2017  17:32:25.389716	7.732972E-2	2.890495E-3	4.313072E-3	4.702267E-3	8.206074E-3	6.491751E-3	7.286411E-3	4.827849E-4
10/19/2017  17:32:25.390716	4.924071E-2	1.899162E-3	4.004941E-3	5.367729E-3	1.265170E-3	2.238258E-2	2.869650E-3	4.350535E-3
10/19/2017  17:32:25.391716	5.918902E-2	1.618051E-2	5.550012E-3	3.073208E-3	8.155775E-3	6.067205E-3	9.110789E-3	5.298940E-3
10/19/2017  17:32:25.392716	4.870954E-2	6.849019E-3	4.349200E-3	2.568157E-3	9.210703E-3	9.048136E-3	8.315612E-5	3.344412E-3
10/19/2017  17:32:25.393716	6.400329E-2	1.053483E-2	2.597744E-3	1.300551E-2	4.701193E-3	2.157933E-3	6.412515E-3	2.577521E-3
10/19/2017  17:32:25.394716	7.392838E-3	1.115456E-2	9.637647E-3	2.355159E-3	5.886122E-3	5.809579E-3	8.645944E-3	6.770118E-3
10/19/2017  17:32:25.395716	4.814161E-2	4.793965E-3	5.090212E-3	1.770550E-2	2.159154E-3	9.114036E-3	1.847010E-3	3.444949E-3
10/19/2017  17:32:25.396716	3.495940E-2	8.529027E-5	2.724019E-3	4.219910E-3	2.786951E-3	6.499144E-3	1.177960E-3	4.143966E-3
10/19/2017  17:32:25.397716	2.098971E-1	7.566808E-3	3.898317E-3	3.532470E-3	1.270970E-2	2.261086E-5	8.000016E-3	4.418047E-3
10/19/2017  17:32:25.398716	1.490274E-1	1.051633E-2	6.254912E-3	2.483800E-3	4.565149E-3	9.073293E-3	3.449028E-3	1.291447E-2
10/19/2017  17:32:25.399716	1.532847E-1	7.625456E-4	2.496510E-3	7.025305E-3	2.117422E-2	8.367932E-5	1.471856E-5	1.189077E-2
10/19/2017  17:32:25.400716	4.428843E-1	4.112492E-3	2.485766E-3	1.022417E-2	2.953571E-4	6.390798E-3	4.703438E-3	6.672616E-3
10/19/2017  17:32:25.401716	2.369000E-2	9.595386E-4	2.676713E-3	3.743907E-3	4.968678E-3	4.942254E-5	7.381427E-4	4.647136E-3
10/19/2017  17:32:25.402716	5.117922E-1	2.951585E-3	1.947128E-3	1.795717E-2	3.817159E-3	6.872227E-3	2.442529E-3	7.814116E-3
10/19/2017  17:32:25.403716	1.810141E-1	6.387518E-3	5.161370E-3	9.397185E-3	5.819657E-3	2.850219E-3	7.874057E-4	7.781903E-3
10/19/2017  17:32:25.404716	3.585040E-2	1.096682E-4	7.225388E-3	9.278638E-3	5.188658E-4	4.498845E-3	7.426201E-3	7.754822E-3
10/19/2017  17:32:25.405716	2.786030E-1	2.684488E-3	1.479956E-3	2.011071E-3	2.935626E-3	7.426884E-3	1.063731E-3	5.683024E-3
10/19/2017  17:32:25.406716	4.954920E-1	4.472808E-3	5.548122E-3	1.156206E-2	6.739456E-3	5.355669E-4	1.359629E-2	2.522386E-3
10/19/2017  17:32:25.407716	5.771450E-2	8.754183E-4	4.720842E-3	3.507404E-3	5.291315E-4	1.096879E-2	3.933100E-3	3.980130E-3
10/19/2017  17:32:25.408716	4.982331E-1	2.487961E-3	5.404813E-3	1.114166E-2	6.130404E-3	1.500443E-3	2.074677E-2	2.655876E-3
10/19/2017  17:32:25.409716	6.205633E-1	8.308749E-4	8.666643E-4	6.088970E-3	4.513554E-3	3.232555E-3	2.616939E-3	7.102496E-3
10/19/2017  17:32:25.410716	5.316060E-1	7.553549E-3	5.390973E-3	2.152104E-3	5.494154E-3	1.890880E-5	1.072137E-2	3.424399E-3
10/19/2017  17:32:25.411716	4.650985E-1	7.340712E-3	6.278390E-3	3.678904E-3	4.876158E-3	2.299393E-3	9.675848E-4	8.651730E-3
10/19/2017  17:32:25.412716	3.897131E-1	2.577976E-3	6.315587E-3	1.870570E-3	5.635191E-3	4.556292E-4	3.555784E-4	3.155822E-3
10/19/2017  17:32:25.413716	1.869835E-1	5.349437E-3	8.676103E-3	3.622859E-3	1.580396E-3	1.105804E-2	1.233100E-4	7.274047E-3
10/19/2017  17:32:25.414716	1.551995E-1	4.395571E-3	3.961952E-3	1.771651E-3	1.009781E-2	3.421586E-3	4.855282E-4	2.986361E-3
10/19/2017  17:32:25.415716	2.407467E-1	5.086285E-3	3.952832E-3	1.267646E-3	7.472498E-4	2.667703E-2	5.061576E-3	5.866658E-3
10/19/2017  17:32:25.416716	2.657591E-1	9.477311E-3	7.330874E-3	7.785952E-3	3.864699E-3	5.322453E-3	8.133937E-3	5.354075E-3
10/19/2017  17:32:25.417716	1.995766E-1	9.458047E-3	3.534343E-3	1.197889E-3	5.199711E-4	1.092590E-2	5.150278E-3	1.326436E-2
10/19/2017  17:32:25.418716	1.968995E-1	1.152083E-3	4.727276E-3	1.413009E-2	4.572563E-3	6.049842E-4	5.983438E-4	3.195517E-3
10/19/2017  17:32:25.419716	9.452849E-2	3.812567E-3	9.754134E-3	5.283957E-3	7.714112E-4	2.190278E-4	6.847963E-3	4.544835E-3
10/19/2017  17:32:25.420716	2.182415E-2	1.207795E-2	2.910596E-4	1.471074E-2	1.068551E-2	4.414283E-3	2.365248E-3	5.186644E-3
10/19/2017  17:32:25.421716	1.691501E-1	2.219223E-4	2.243239E-3	2.970966E-3	3.307383E-3	1.091782E-3	3.188041E-3	5.328526E-3
								
10/19/2017  17:32:25.422716	1.330269E-2	2.971190E-4	3.301592E-4	5.020708E-4	1.441600E-5	8.167758E-4	9.258193E-3	6.193135E-3
10/19/2017  17:32:25.423716	1.963260E-1	4.638623E-3	4.306273E-3	9.884873E-3	2.722331E-4	3.731290E-3	2.450936E-3	6.519574E-3
10/19/2017  17:32:25.424716	4.718316E-2	3.205660E-3	1.699339E-3	9.090457E-3	4.769898E-4	3.475662E-4	3.921518E-3	4.378862E-3
10/19/2017  17:32:25.425716	6.067487E-1	6.655401E-3	1.030321E-2	1.593581E-2	6.340712E-4	2.192023E-3	1.675723E-3	7.756238E-3
10/19/2017  17:32:25.426716	9.610641E-1	1.615805E-3	1.203622E-2	1.439779E-3	7.239349E-3	3.083456E-3	7.794365E-3	1.604489E-2
10/19/2017  17:32:25.427716	1.957330E-1	3.143982E-3	9.164223E-3	2.900608E-2	8.585106E-4	2.903780E-4	1.190453E-2	2.051857E-5
10/19/2017  17:32:25.428716	2.000030E-1	2.423760E-3	4.594811E-3	4.389110E-3	3.778053E-3	2.602779E-3	3.482458E-4	7.284101E-3
10/19/2017  17:32:25.429716	1.757282E-1	8.531840E-3	3.248304E-3	2.431059E-3	4.489556E-4	1.555046E-4	5.454086E-4	3.646853E-3
10/19/2017  17:32:25.430716	1.082924E-1	6.857403E-3	2.213233E-3	9.663442E-3	1.980724E-3	3.270388E-5	6.841182E-4	1.246356E-3
10/19/2017  17:32:25.431716	1.386533E-1	2.484104E-3	4.726485E-3	1.235632E-2	2.842350E-3	4.141746E-3	5.700046E-3	8.287063E-3
10/19/2017  17:32:25.432716	9.572692E-2	1.328869E-3	7.310747E-3	1.377086E-2	4.645530E-3	2.621868E-3	2.943711E-3	8.328747E-3
10/19/2017  17:32:25.433716	3.803045E-2	6.101219E-3	8.505128E-3	1.180969E-3	3.340145E-3	5.101900E-3	6.913942E-3	2.817777E-3
10/19/2017  17:32:25.434716	9.105649E-2	3.884344E-3	4.189611E-3	5.827734E-3	4.253502E-3	3.981774E-3	8.441012E-4	6.410657E-3
10/19/2017  17:32:25.435716	4.665996E-2	2.107267E-3	2.280526E-3	2.310826E-3	5.206159E-3	1.314839E-3	3.561382E-3	6.411549E-3
10/19/2017  17:32:25.436716	2.143179E-1	8.540082E-3	5.752496E-3	5.864200E-3	1.166812E-2	3.570051E-3	1.070043E-2	2.440637E-4
10/19/2017  17:32:25.437716	2.740601E-1	1.353493E-4	1.350169E-2	4.868469E-3	3.806536E-3	6.920941E-3	3.208790E-3	4.216976E-3
10/19/2017  17:32:25.438716	1.121048E-1	2.039745E-3	9.453339E-4	5.226481E-4	8.555451E-3	2.513801E-3	6.685822E-3	2.919485E-3
10/19/2017  17:32:25.439716	3.625127E-1	1.135346E-3	5.976450E-3	1.079954E-2	1.945109E-3	7.299068E-3	1.568169E-3	8.955271E-3
10/19/2017  17:32:25.440716	2.267958E-1	1.757293E-3	8.516300E-3	6.148905E-3	5.061055E-3	3.276767E-3	7.415325E-3	8.460211E-3
10/19/2017  17:32:25.441716	4.573351E-2	1.458144E-2	8.870207E-4	3.051609E-3	1.177608E-2	8.384153E-3	4.519248E-4	9.590621E-3
10/19/2017  17:32:25.442716	1.588028E-1	2.762238E-3	7.678637E-3	7.705242E-4	6.046244E-3	5.569556E-3	8.961239E-3	8.035311E-3
10/19/2017  17:32:25.443716	1.946059E-1	2.112399E-3	5.014170E-3	7.303200E-3	1.137998E-2	9.728532E-3	2.710917E-4	5.210113E-3
10/19/2017  17:32:25.444716	1.270749E-1	9.846039E-4	3.080713E-3	2.443344E-3	6.126396E-3	3.085683E-3	5.042184E-4	5.764661E-3
10/19/2017  17:32:25.445716	1.555456E-2	7.524572E-3	2.835393E-3	1.378601E-2	1.308794E-2	3.525892E-4	5.795702E-3	2.678263E-3
10/19/2017  17:32:25.446716	1.854282E-1	3.275562E-3	9.191011E-3	1.963612E-3	3.472991E-4	1.605344E-3	5.079232E-3	4.703936E-3
10/19/2017  17:32:25.447716	1.695027E-1	2.093341E-3	4.302352E-4	8.536899E-3	8.880940E-3	7.880955E-3	8.403935E-3	8.143849E-3
10/19/2017  17:32:25.448716	9.444980E-2	6.091551E-4	3.713906E-3	1.074825E-2	2.157883E-3	7.447873E-4	1.796354E-3	5.344460E-4
10/19/2017  17:32:25.449716	2.894358E-2	2.526525E-3	6.461686E-3	3.286194E-3	6.190750E-4	3.872845E-3	5.208351E-3	6.763198E-3
10/19/2017  17:32:25.450716	1.772551E-2	1.625398E-3	7.037937E-3	8.949140E-3	4.314591E-4	3.780068E-3	7.247754E-3	2.292960E-3
10/19/2017  17:32:25.451716	1.870170E-1	3.431279E-3	6.473229E-4	3.403665E-4	4.047250E-3	8.144423E-3	1.001509E-2	7.572812E-3
10/19/2017  17:32:25.452716	1.362305E-2	2.610280E-3	1.048338E-2	2.214612E-2	4.910267E-3	9.314153E-4	6.880579E-3	1.277062E-2
10/19/2017  17:32:25.453716	3.145163E-2	2.593601E-4	1.005805E-2	2.093245E-3	5.544585E-3	3.141274E-3	1.083195E-2	1.186220E-3
10/19/2017  17:32:25.454716	3.975329E-2	8.472626E-3	7.107497E-3	1.521336E-2	6.358919E-3	2.458028E-3	2.775879E-3	1.790525E-3
								
10/19/2017  17:32:25.455716	6.228028E-2	2.922374E-3	1.481843E-2	2.506542E-4	6.320457E-3	1.870753E-3	1.645043E-3	8.186287E-3
10/19/2017  17:32:25.456716	2.481501E-2	8.872256E-3	2.866197E-4	4.032275E-3	2.158357E-3	1.370680E-3	7.896780E-3	8.093527E-3
10/19/2017  17:32:25.457716	4.062374E-2	1.970725E-3	1.547402E-2	4.201671E-4	3.853913E-3	3.107997E-3	7.938798E-3	1.137693E-3
10/19/2017  17:32:25.458716	5.296160E-2	7.414356E-3	4.564832E-3	6.561468E-3	5.754675E-4	6.584792E-3	3.261446E-3	2.487650E-3
10/19/2017  17:32:25.459716	5.773212E-2	8.774042E-4	3.719055E-3	2.675810E-3	1.815996E-3	6.785562E-3	6.783458E-3	1.049033E-3
10/19/2017  17:32:25.460716	1.130544E-2	3.890442E-3	1.341308E-3	6.714107E-3	8.705269E-4	4.203570E-3	8.080705E-4	3.631616E-3
10/19/2017  17:32:25.461716	2.058515E-2	1.473533E-3	7.047477E-3	4.135713E-3	8.053640E-3	5.483029E-3	1.337442E-3	9.719219E-3
10/19/2017  17:32:25.462716	1.123018E-2	5.256370E-3	6.499837E-3	9.832609E-4	1.052307E-3	2.465056E-3	5.848598E-3	1.402005E-3
10/19/2017  17:32:25.463716	5.351299E-2	9.555580E-3	5.215462E-3	8.456626E-4	5.428152E-3	9.204791E-3	4.015264E-6	7.150323E-3
10/19/2017  17:32:25.464716	9.323741E-3	1.116481E-2	2.392352E-3	7.212721E-4	4.021009E-3	8.909534E-5	8.513516E-3	2.046283E-3
10/19/2017  17:32:25.465716	2.100420E-2	9.801058E-3	9.085152E-4	2.769224E-3	2.821748E-3	1.327664E-2	3.051029E-3	1.511805E-2
10/19/2017  17:32:25.466716	5.872491E-2	1.584336E-2	5.436745E-3	8.439632E-3	3.975035E-3	1.586317E-3	9.131855E-3	4.191871E-3
10/19/2017  17:32:25.467716	2.865472E-2	8.617302E-3	8.467832E-3	8.488855E-4	1.901656E-3	5.768054E-3	1.985083E-3	5.852074E-3
10/19/2017  17:32:25.468716	1.240358E-2	2.130361E-3	1.612725E-3	7.537551E-3	8.248719E-3	2.052957E-3	1.254022E-3	1.306272E-4
10/19/2017  17:32:25.469716	7.035104E-2	4.599803E-4	1.270923E-3	1.229800E-3	5.230378E-4	7.181575E-4	6.497794E-4	2.280495E-3
10/19/2017  17:32:25.470716	2.347110E-1	1.291930E-4	9.935760E-4	9.576288E-4	6.170008E-3	8.106815E-3	6.313121E-3	1.236010E-2
10/19/2017  17:32:25.471716	8.787659E-2	1.328826E-4	6.098500E-3	3.602258E-3	8.777268E-3	3.272487E-3	4.053921E-3	4.723601E-3
10/19/2017  17:32:25.472716	9.364338E-2	3.982680E-3	2.004019E-3	4.553214E-3	3.322962E-4	9.041747E-3	2.692314E-3	6.060899E-3
10/19/2017  17:32:25.473716	1.192703E-1	6.215672E-3	3.404550E-3	1.011705E-2	4.725458E-3	4.579653E-3	9.223182E-3	6.180390E-3
10/19/2017  17:32:25.474716	2.078994E-1	4.662599E-3	2.256998E-3	5.106236E-3	3.143594E-3	3.149980E-3	4.188531E-3	1.468344E-2
10/19/2017  17:32:25.475716	2.323192E-1	3.144535E-3	2.369827E-3	3.404010E-3	2.173956E-3	4.388171E-3	7.076471E-4	1.016119E-2
10/19/2017  17:32:25.476716	8.205887E-2	9.393854E-6	7.406636E-3	4.499048E-3	2.962588E-3	3.142424E-3	1.839565E-3	8.240926E-3
10/19/2017  17:32:25.477716	6.658046E-2	4.440907E-3	3.139864E-3	1.218253E-2	2.207483E-3	2.228202E-3	5.752677E-3	2.211276E-3
10/19/2017  17:32:25.478716	3.260870E-1	1.213492E-3	6.711571E-3	8.762377E-3	2.765711E-3	1.690530E-3	4.650997E-3	4.690052E-5
10/19/2017  17:32:25.479716	4.088930E-1	3.085210E-3	5.545321E-4	1.328076E-2	6.218945E-3	1.233094E-3	1.194163E-2	9.142809E-3
10/19/2017  17:32:25.480716	9.589275E-3	2.177718E-3	8.222209E-3	1.715232E-3	6.745822E-3	7.785797E-3	1.142879E-2	4.546838E-3
10/19/2017  17:32:25.481716	1.910889E-1	8.020032E-3	3.348013E-3	1.247253E-2	2.808024E-3	7.680023E-3	1.912209E-2	3.319190E-3
10/19/2017  17:32:25.482716	2.285187E-1	1.037362E-3	1.763515E-2	6.693444E-3	2.320255E-3	1.210353E-3	8.625793E-3	4.084174E-3
10/19/2017  17:32:25.483716	1.696163E-1	4.087579E-3	2.607751E-3	6.447632E-3	2.746435E-3	3.505042E-3	1.317324E-2	4.868217E-3
10/19/2017  17:32:25.484716	1.597259E-1	3.318599E-3	1.708125E-2	2.686121E-3	1.937289E-3	6.735923E-3	5.708842E-3	5.647364E-3
10/19/2017  17:32:25.485716	1.460540E-1	1.672759E-3	3.540106E-3	1.309004E-2	9.121175E-4	6.383113E-3	1.770025E-3	4.390630E-3
10/19/2017  17:32:25.486716	1.835290E-1	8.434601E-4	9.639303E-3	4.275421E-3	2.939048E-3	4.530880E-4	7.646374E-3	3.144087E-3
10/19/2017  17:32:25.487716	2.553392E-1	6.303380E-3	2.816619E-3	1.448235E-2	5.413219E-5	1.664398E-3	1.014165E-3	1.902011E-3
								
10/19/2017  17:32:25.488716	2.504655E-1	1.766256E-3	6.544125E-3	4.734063E-3	4.366341E-3	1.172925E-2	5.044421E-3	9.932221E-3
10/19/2017  17:32:25.489716	6.099448E-1	7.478903E-3	4.301112E-3	9.709502E-3	7.888628E-3	7.513756E-3	3.087786E-3	7.733245E-4
10/19/2017  17:32:25.490716	5.358749E-1	8.214374E-3	9.763893E-3	8.788870E-3	3.116640E-3	1.244763E-2	4.504340E-3	3.674275E-3
10/19/2017  17:32:25.491716	3.716998E-1	1.701323E-2	1.888025E-3	6.617937E-3	6.573083E-3	3.354972E-4	1.004806E-3	4.115348E-3
10/19/2017  17:32:25.492716	7.254677E-1	3.353316E-3	1.590190E-3	3.886505E-3	2.076082E-3	4.093989E-3	1.570464E-3	7.406503E-3
10/19/2017  17:32:25.493716	1.251017E+0	4.962448E-3	8.237282E-4	3.846946E-3	1.472689E-2	3.693802E-3	5.518994E-3	1.214290E-2
10/19/2017  17:32:25.494716	6.360396E-1	5.467876E-4	2.490517E-3	7.073361E-3	6.490434E-4	3.823924E-3	9.158973E-3	6.216530E-3
10/19/2017  17:32:25.495716	5.007983E-2	2.302123E-3	7.264086E-3	4.721514E-3	9.109075E-4	4.747202E-3	1.306023E-2	7.027700E-3
10/19/2017  17:32:25.496716	6.900054E-1	9.525467E-3	1.029518E-3	5.886902E-3	3.259833E-3	9.930751E-3	1.756961E-3	3.348038E-3
10/19/2017  17:32:25.497716	7.108393E-3	4.673242E-3	3.489411E-3	4.671537E-3	6.995777E-3	1.539779E-3	1.237620E-2	3.733685E-3
10/19/2017  17:32:25.498716	3.304022E-1	7.678470E-3	6.559418E-3	3.619464E-3	7.190350E-4	1.108157E-3	4.278347E-3	2.145053E-3
10/19/2017  17:32:25.499716	2.287006E-1	3.271799E-3	8.854713E-3	5.561628E-4	6.977227E-3	3.560059E-3	7.457326E-3	1.641932E-2
10/19/2017  17:32:25.500716	4.162974E-1	4.388098E-3	8.790795E-3	1.777838E-2	1.845119E-3	4.051982E-3	7.866859E-3	5.311271E-3
10/19/2017  17:32:25.501716	3.796259E-1	5.403209E-3	2.915314E-4	7.390863E-3	5.037337E-4	3.588520E-3	1.285959E-3	1.158781E-2
10/19/2017  17:32:25.502716	8.668976E-2	5.916085E-4	2.511264E-3	1.010427E-2	4.356855E-3	1.106618E-2	1.364553E-3	5.966252E-3
10/19/2017  17:32:25.503716	1.739294E-1	4.893564E-3	1.111448E-2	2.970303E-3	9.675315E-4	3.535916E-3	5.379510E-3	4.856173E-3
10/19/2017  17:32:25.504716	3.189679E-1	7.341154E-3	3.369996E-3	2.313622E-3	3.922534E-3	1.153698E-3	4.925324E-3	8.136649E-3
10/19/2017  17:32:25.505716	3.749454E-1	1.462441E-3	9.371235E-3	2.615328E-3	2.954437E-3	4.225215E-3	3.491106E-3	2.825520E-3
10/19/2017  17:32:25.506716	1.059956E-1	9.912436E-3	3.251313E-4	1.034863E-2	4.289270E-3	1.012612E-2	1.282003E-2	4.124371E-3
10/19/2017  17:32:25.507716	6.093313E-3	3.888746E-3	1.268059E-2	1.052619E-2	3.613571E-3	5.309538E-3	2.392903E-3	8.082976E-3
10/19/2017  17:32:25.508716	1.147814E-1	1.150503E-2	1.096005E-2	7.836880E-3	2.661192E-3	4.876729E-3	1.820881E-2	1.383712E-3
10/19/2017  17:32:25.509716	3.428916E-2	2.982039E-3	4.883849E-3	9.317676E-4	1.854992E-3	7.669849E-3	2.003540E-3	3.532168E-3
10/19/2017  17:32:25.510716	1.680133E-1	6.835719E-3	3.391244E-3	7.290168E-4	3.146072E-3	3.649588E-3	3.321896E-3	4.601529E-4
10/19/2017  17:32:25.511716	1.308332E-1	2.836829E-3	2.739585E-3	2.714303E-3	2.046664E-3	1.598489E-2	2.726916E-3	1.753346E-3
10/19/2017  17:32:25.512716	7.594684E-2	6.652821E-3	6.476244E-3	1.855961E-3	5.130163E-3	3.935689E-3	2.114706E-3	1.073952E-3
10/19/2017  17:32:25.513716	1.346540E-1	1.932529E-3	2.227784E-4	1.139695E-3	7.602484E-4	1.424727E-2	5.311780E-3	5.244840E-3
10/19/2017  17:32:25.514716	1.786731E-1	2.314671E-2	2.153586E-3	3.768894E-3	7.143360E-3	7.912810E-3	8.277591E-3	1.544858E-3
10/19/2017  17:32:25.515716	1.168052E-1	1.017102E-2	5.329131E-4	1.495765E-3	1.573992E-3	1.062903E-2	3.550850E-3	5.284613E-3
10/19/2017  17:32:25.516716	1.621810E-1	1.865521E-2	6.743397E-3	9.526881E-3	8.610136E-4	3.501677E-3	8.681739E-3	1.242523E-3
10/19/2017  17:32:25.517716	2.116851E-2	8.456854E-3	2.230989E-3	4.605795E-3	3.960391E-4	6.097914E-3	2.302250E-3	3.914685E-3
10/19/2017  17:32:25.518716	1.015049E-1	1.696245E-3	5.496675E-3	3.816201E-3	6.465848E-3	2.396387E-3	1.009052E-2	7.474699E-3
10/19/2017  17:32:25.519716	6.551323E-2	7.577695E-3	2.096855E-3	9.584107E-3	1.867303E-3	6.267613E-3	4.226458E-3	1.062889E-3
10/19/2017  17:32:25.520716	4.414133E-2	1.203158E-3	3.378026E-3	1.822579E-3	1.295107E-3	2.297354E-3	7.923948E-3	7.935887E-3
								
10/19/2017  17:32:25.521716	1.914916E-1	1.009355E-3	1.427214E-3	1.326141E-3	1.341441E-3	2.837946E-3	5.335049E-4	3.215150E-3
10/19/2017  17:32:25.522716	6.694042E-2	5.151271E-3	4.578892E-4	3.078035E-3	1.196569E-2	2.216862E-3	4.207408E-3	4.627577E-3
10/19/2017  17:32:25.523716	2.111617E-1	2.897707E-3	1.326816E-2	2.281540E-3	1.148264E-2	1.425190E-3	3.121329E-3	1.105094E-3
