Parameters: 	Upper Cutoff:  500	Lower Cutoff: 20	Sample Rate (Hz): 1000	Frames Per Second30	Display Window Size (S)800	MVC Window Size (s): 800	Seconds To Acquire MVC: 3	Display Channel: 0
waveform	[0]	[1]	[2]	[3]	[4]	[5]	[6]	[7]
t0	10/19/2017  17:38:53.847358	10/19/2017  17:38:53.847358	10/19/2017  17:38:53.847358	10/19/2017  17:38:53.847358	10/19/2017  17:38:53.847358	10/19/2017  17:38:53.847358	10/19/2017  17:38:53.847358	10/19/2017  17:38:53.847358
delta t	0.001000	0.001000	0.001000	0.001000	0.001000	0.001000	0.001000	0.001000

time	Y[0]	Y[1]	Y[2]	Y[3]	Y[4]	Y[5]	Y[6]	Y[7]
10/19/2017  17:38:53.847755	1.609681E+0	1.319332E-2	2.155331E-2	-1.013378E+1	1.457878E-2	2.455003E-2	7.968532E-2	3.164702E-2
10/19/2017  17:38:53.848755	3.869804E-1	1.064948E-2	2.918892E-2	-1.012869E+1	3.497837E-2	9.286120E-3	7.714242E-2	4.182269E-2
10/19/2017  17:38:53.849755	-7.312115E-2	1.064948E-2	1.900811E-2	-1.013887E+1	2.477858E-2	2.455003E-2	6.697081E-2	3.164702E-2
10/19/2017  17:38:53.850755	-1.875110E-1	1.573716E-2	2.155331E-2	-1.014142E+1	1.202884E-2	2.963800E-2	6.697081E-2	1.383961E-2
10/19/2017  17:38:53.851755	1.709106E-1	1.573716E-2	1.900811E-2	-1.013632E+1	1.457878E-2	1.946206E-2	8.477112E-2	2.655919E-2
10/19/2017  17:38:53.852755	2.166666E-1	1.064948E-2	2.155331E-2	-1.013123E+1	1.967868E-2	1.946206E-2	7.714242E-2	4.691052E-2
10/19/2017  17:38:53.853755	6.564322E-1	1.319332E-2	2.155331E-2	-1.012869E+1	2.732853E-2	2.200605E-2	6.697081E-2	2.910311E-2
10/19/2017  17:38:53.854755	7.939871E-2	1.064948E-2	1.137250E-2	-1.014651E+1	1.712873E-2	2.455003E-2	7.205661E-2	1.892744E-2
10/19/2017  17:38:53.855755	-2.942750E-1	1.319332E-2	1.900811E-2	-1.014651E+1	1.967868E-2	1.183011E-2	7.714242E-2	2.910311E-2
10/19/2017  17:38:53.856755	-1.341291E-1	1.573716E-2	2.664372E-2	-1.013887E+1	1.967868E-2	1.946206E-2	7.459952E-2	3.164702E-2
10/19/2017  17:38:53.857755	-5.306807E-1	1.319332E-2	1.391770E-2	-1.013378E+1	2.222863E-2	1.946206E-2	6.442791E-2	2.401527E-2
10/19/2017  17:38:53.858755	-1.722591E-1	4.741205E-4	1.391770E-2	-1.013887E+1	2.222863E-2	1.691808E-2	7.205661E-2	2.910311E-2
10/19/2017  17:38:53.859755	9.182580E-1	1.064948E-2	1.900811E-2	-1.014142E+1	2.222863E-2	1.946206E-2	6.951371E-2	3.673486E-2
10/19/2017  17:38:53.860755	2.903845E-1	1.064948E-2	8.827299E-3	-1.013632E+1	1.202884E-2	2.709402E-2	7.459952E-2	3.164702E-2
10/19/2017  17:38:53.861755	-3.499119E-2	1.828100E-2	1.646291E-2	-1.013378E+1	1.967868E-2	1.946206E-2	7.205661E-2	2.147136E-2
10/19/2017  17:38:53.862755	-2.612290E-1	1.319332E-2	1.646291E-2	-1.013887E+1	2.222863E-2	1.183011E-2	7.205661E-2	2.147136E-2
10/19/2017  17:38:53.863755	-8.128425E-1	1.064948E-2	1.646291E-2	-1.014142E+1	2.477858E-2	1.946206E-2	7.459952E-2	3.673486E-2
10/19/2017  17:38:53.864755	-6.041116E-2	1.319332E-2	1.391770E-2	-1.013887E+1	2.222863E-2	2.963800E-2	7.459952E-2	3.673486E-2
10/19/2017  17:38:53.865755	2.268346E-1	3.100021E-2	1.391770E-2	-1.012614E+1	1.457878E-2	2.200605E-2	7.205661E-2	3.164702E-2
10/19/2017  17:38:53.866755	4.251104E-1	1.573716E-2	1.646291E-2	-1.014651E+1	2.222863E-2	2.455003E-2	8.222822E-2	2.401527E-2
10/19/2017  17:38:53.867755	1.912466E-1	-7.157401E-3	2.664372E-2	-1.015160E+1	9.478889E-3	1.946206E-2	7.459952E-2	3.164702E-2
10/19/2017  17:38:53.868755	1.289390E+0	8.105642E-3	2.155331E-2	-1.012869E+1	2.222863E-2	1.691808E-2	7.968532E-2	3.419094E-2
10/19/2017  17:38:53.869755	1.622391E+0	1.064948E-2	1.137250E-2	-1.012359E+1	4.262821E-2	1.946206E-2	7.205661E-2	3.419094E-2
10/19/2017  17:38:53.870755	-2.790230E-1	1.828100E-2	1.391770E-2	-1.015415E+1	2.222863E-2	1.946206E-2	7.459952E-2	2.401527E-2
10/19/2017  17:38:53.871755	-8.357205E-1	1.064948E-2	2.664372E-2	-1.014142E+1	2.477858E-2	1.946206E-2	7.714242E-2	3.419094E-2
10/19/2017  17:38:53.872755	-1.448342E+0	1.064948E-2	2.409852E-2	-1.013887E+1	1.967868E-2	1.946206E-2	7.205661E-2	3.673486E-2
10/19/2017  17:38:53.873755	7.177272E-2	1.319332E-2	1.646291E-2	-1.013887E+1	2.477858E-2	1.183011E-2	7.205661E-2	2.401527E-2
10/19/2017  17:38:53.874755	2.319186E-1	1.064948E-2	2.664372E-2	-1.013378E+1	2.222863E-2	1.946206E-2	7.205661E-2	3.164702E-2
10/19/2017  17:38:53.875755	6.106762E-1	1.828100E-2	1.137250E-2	-1.013632E+1	1.712873E-2	2.709402E-2	7.459952E-2	3.927877E-2
10/19/2017  17:38:53.876755	-2.027630E-1	1.319332E-2	2.664372E-2	-1.013378E+1	1.457878E-2	2.709402E-2	8.731403E-2	2.910311E-2
10/19/2017  17:38:53.877755	-7.111626E-1	1.064948E-2	2.918892E-2	-1.013123E+1	2.222863E-2	1.437409E-2	7.714242E-2	3.673486E-2
10/19/2017  17:38:53.878755	2.344606E-1	4.741205E-4	1.137250E-2	-1.012869E+1	2.987847E-2	1.691808E-2	6.188501E-2	3.673486E-2
10/19/2017  17:38:53.879755	3.285145E-1	3.017961E-3	1.137250E-2	-1.013887E+1	2.477858E-2	2.200605E-2	6.697081E-2	2.401527E-2
								
10/19/2017  17:38:53.880755	1.467329E+0	2.082484E-2	1.900811E-2	-1.013632E+1	1.967868E-2	2.709402E-2	8.985693E-2	2.401527E-2
10/19/2017  17:38:53.881755	2.064986E-1	1.828100E-2	3.427933E-2	-1.014142E+1	2.222863E-2	1.691808E-2	8.222822E-2	3.164702E-2
10/19/2017  17:38:53.882755	-1.163638E+0	1.064948E-2	1.646291E-2	-1.013632E+1	2.222863E-2	1.946206E-2	6.442791E-2	3.673486E-2
10/19/2017  17:38:53.883755	6.923072E-2	3.017961E-3	1.137250E-2	-1.013378E+1	2.477858E-2	6.742135E-3	6.951371E-2	3.164702E-2
10/19/2017  17:38:53.884755	9.436779E-1	1.319332E-2	1.137250E-2	-1.013887E+1	3.242842E-2	1.946206E-2	6.951371E-2	3.419094E-2
10/19/2017  17:38:53.885755	3.971484E-1	1.828100E-2	1.646291E-2	-1.013887E+1	2.987847E-2	4.490191E-2	7.459952E-2	2.655919E-2
10/19/2017  17:38:53.886755	1.640185E+0	5.561801E-3	1.646291E-2	-1.014142E+1	2.477858E-2	1.946206E-2	7.459952E-2	2.910311E-2
10/19/2017  17:38:53.887755	9.843499E-1	1.064948E-2	2.155331E-2	-1.013887E+1	2.477858E-2	9.286120E-3	7.459952E-2	2.147136E-2
10/19/2017  17:38:53.888755	-9.450264E-1	2.082484E-2	1.646291E-2	-1.013887E+1	2.732853E-2	1.183011E-2	7.459952E-2	2.655919E-2
10/19/2017  17:38:53.889755	-1.270402E+0	1.064948E-2	1.646291E-2	-1.013887E+1	2.987847E-2	2.200605E-2	6.442791E-2	2.910311E-2
10/19/2017  17:38:53.890755	-6.984526E-1	8.105642E-3	1.900811E-2	-1.014651E+1	1.202884E-2	2.709402E-2	7.205661E-2	1.892744E-2
10/19/2017  17:38:53.891755	-9.571210E-3	2.082484E-2	2.409852E-2	-1.014905E+1	1.712873E-2	2.455003E-2	7.205661E-2	2.910311E-2
10/19/2017  17:38:53.892755	6.615162E-1	1.064948E-2	1.900811E-2	-1.013378E+1	9.478889E-3	2.455003E-2	7.968532E-2	2.655919E-2
10/19/2017  17:38:53.893755	1.052984E+0	8.105642E-3	2.155331E-2	-1.012105E+1	2.732853E-2	1.946206E-2	6.697081E-2	3.927877E-2
10/19/2017  17:38:53.894755	5.572943E-1	1.064948E-2	1.391770E-2	-1.013378E+1	2.222863E-2	2.455003E-2	6.951371E-2	4.182269E-2
10/19/2017  17:38:53.895755	9.792659E-1	1.319332E-2	1.137250E-2	-1.014651E+1	2.222863E-2	1.946206E-2	7.205661E-2	3.164702E-2
10/19/2017  17:38:53.896755	-1.824271E-1	1.064948E-2	1.391770E-2	-1.013632E+1	1.457878E-2	2.200605E-2	7.459952E-2	3.673486E-2
10/19/2017  17:38:53.897755	-5.154288E-1	3.017961E-3	1.900811E-2	-1.011341E+1	2.222863E-2	1.946206E-2	7.968532E-2	2.910311E-2
10/19/2017  17:38:53.898755	-1.595491E-1	1.573716E-2	8.827299E-3	-1.013632E+1	1.967868E-2	1.946206E-2	6.951371E-2	3.164702E-2
10/19/2017  17:38:53.899755	1.124447E-1	1.319332E-2	1.646291E-2	-1.015415E+1	1.712873E-2	1.183011E-2	6.442791E-2	2.401527E-2
10/19/2017  17:38:53.900755	-1.290451E-1	1.064948E-2	2.409852E-2	-1.013887E+1	1.457878E-2	2.455003E-2	8.222822E-2	3.673486E-2
10/19/2017  17:38:53.901755	-8.891024E-1	1.064948E-2	1.646291E-2	-1.012869E+1	2.222863E-2	1.946206E-2	8.731403E-2	3.419094E-2
10/19/2017  17:38:53.902755	-2.790230E-1	2.591253E-2	1.900811E-2	-1.014651E+1	2.987847E-2	1.946206E-2	6.697081E-2	2.655919E-2
10/19/2017  17:38:53.903755	-6.041116E-2	8.105642E-3	1.646291E-2	-1.014651E+1	2.222863E-2	2.709402E-2	6.951371E-2	2.401527E-2
10/19/2017  17:38:53.904755	-4.518788E-1	1.064948E-2	1.391770E-2	-1.013887E+1	1.457878E-2	2.709402E-2	7.205661E-2	3.164702E-2
10/19/2017  17:38:53.905755	-9.526524E-1	1.573716E-2	2.155331E-2	-1.014651E+1	1.967868E-2	1.946206E-2	7.205661E-2	2.655919E-2
10/19/2017  17:38:53.906755	-3.984969E-1	5.561801E-3	6.282096E-3	-1.013123E+1	2.732853E-2	1.946206E-2	7.205661E-2	2.910311E-2
10/19/2017  17:38:53.907755	4.479884E-1	4.741205E-4	1.900811E-2	-1.013887E+1	2.222863E-2	1.946206E-2	7.205661E-2	2.910311E-2
10/19/2017  17:38:53.908755	1.279222E+0	2.082484E-2	1.391770E-2	-1.014905E+1	1.967868E-2	3.726996E-2	7.459952E-2	3.673486E-2
10/19/2017  17:38:53.909755	6.767682E-1	2.336868E-2	1.391770E-2	-1.014651E+1	1.967868E-2	2.200605E-2	7.968532E-2	3.419094E-2
10/19/2017  17:38:53.910755	-2.536030E-1	3.017961E-3	1.900811E-2	-1.012869E+1	2.222863E-2	1.183011E-2	7.205661E-2	2.401527E-2
10/19/2017  17:38:53.911755	-4.213748E-1	1.319332E-2	6.282096E-3	-1.013632E+1	2.477858E-2	1.946206E-2	7.205661E-2	2.910311E-2
10/19/2017  17:38:53.912755	-8.662244E-1	1.828100E-2	1.646291E-2	-1.014651E+1	1.967868E-2	2.963800E-2	7.459952E-2	3.419094E-2
								
10/19/2017  17:38:53.913755	-7.797965E-1	1.319332E-2	2.664372E-2	-1.013632E+1	3.242842E-2	2.455003E-2	8.222822E-2	3.419094E-2
10/19/2017  17:38:53.914755	-2.688550E-1	5.561801E-3	2.409852E-2	-1.015160E+1	1.967868E-2	1.946206E-2	6.951371E-2	3.164702E-2
10/19/2017  17:38:53.915755	7.987841E-1	1.064948E-2	6.282096E-3	-1.013887E+1	2.732853E-2	1.691808E-2	6.697081E-2	2.401527E-2
10/19/2017  17:38:53.916755	-5.278517E-2	1.828100E-2	1.137250E-2	-1.015415E+1	2.222863E-2	2.200605E-2	7.459952E-2	3.164702E-2
10/19/2017  17:38:53.917755	-2.790230E-1	1.064948E-2	2.918892E-2	-1.013887E+1	1.457878E-2	2.200605E-2	8.222822E-2	3.927877E-2
10/19/2017  17:38:53.918755	9.335099E-1	5.561801E-3	2.409852E-2	-1.011086E+1	1.967868E-2	1.691808E-2	7.714242E-2	3.927877E-2
10/19/2017  17:38:53.919755	1.406322E+0	1.064948E-2	8.827299E-3	-1.013887E+1	2.477858E-2	1.946206E-2	6.697081E-2	2.910311E-2
10/19/2017  17:38:53.920755	4.988283E-1	1.828100E-2	1.137250E-2	-1.015160E+1	2.477858E-2	2.200605E-2	6.188501E-2	2.655919E-2
10/19/2017  17:38:53.921755	-8.891024E-1	1.064948E-2	2.409852E-2	-1.014905E+1	1.712873E-2	2.963800E-2	7.714242E-2	2.147136E-2
10/19/2017  17:38:53.922755	-1.061671E-1	1.064948E-2	2.409852E-2	-1.013887E+1	1.457878E-2	2.200605E-2	8.985693E-2	3.673486E-2
10/19/2017  17:38:53.923755	-5.786917E-2	1.319332E-2	1.137250E-2	-1.013378E+1	2.222863E-2	1.183011E-2	6.951371E-2	3.673486E-2
10/19/2017  17:38:53.924755	-6.041116E-2	1.064948E-2	1.900811E-2	-1.013887E+1	1.967868E-2	1.946206E-2	8.222822E-2	3.419094E-2
10/19/2017  17:38:53.925755	2.014146E-1	2.082484E-2	2.155331E-2	-1.014142E+1	1.712873E-2	2.963800E-2	7.459952E-2	2.655919E-2
10/19/2017  17:38:53.926755	2.039566E-1	2.082484E-2	2.155331E-2	-1.013887E+1	1.457878E-2	1.946206E-2	8.222822E-2	3.164702E-2
10/19/2017  17:38:53.927755	1.887046E-1	8.105642E-3	1.391770E-2	-1.013632E+1	2.477858E-2	1.437409E-2	7.205661E-2	2.910311E-2
10/19/2017  17:38:53.928755	1.124447E-1	-2.069720E-3	1.391770E-2	-1.013378E+1	2.477858E-2	1.183011E-2	7.205661E-2	3.419094E-2
10/19/2017  17:38:53.929755	-2.612290E-1	1.828100E-2	1.137250E-2	-1.013632E+1	2.222863E-2	2.709402E-2	7.205661E-2	2.655919E-2
10/19/2017  17:38:53.930755	-3.044429E-1	3.017961E-3	1.646291E-2	-1.014142E+1	2.477858E-2	2.709402E-2	7.714242E-2	2.910311E-2
10/19/2017  17:38:53.931755	4.505304E-1	1.319332E-2	1.646291E-2	-1.014142E+1	2.477858E-2	1.946206E-2	7.968532E-2	3.673486E-2
10/19/2017  17:38:53.932755	-2.990719E-2	-7.157401E-3	2.155331E-2	-1.013632E+1	9.478889E-3	1.691808E-2	7.205661E-2	3.419094E-2
10/19/2017  17:38:53.933755	-1.442971E-1	1.064948E-2	1.137250E-2	-1.012869E+1	2.477858E-2	1.946206E-2	6.951371E-2	3.164702E-2
10/19/2017  17:38:53.934755	8.222774E-3	1.573716E-2	1.900811E-2	-1.013887E+1	3.497837E-2	2.455003E-2	7.714242E-2	2.910311E-2
10/19/2017  17:38:53.935755	1.836206E-1	1.828100E-2	2.155331E-2	-1.013123E+1	1.457878E-2	2.963800E-2	7.714242E-2	3.164702E-2
10/19/2017  17:38:53.936755	3.234305E-1	1.064948E-2	2.155331E-2	-1.013378E+1	1.457878E-2	1.691808E-2	7.968532E-2	3.164702E-2
10/19/2017  17:38:53.937755	-5.205127E-1	8.105642E-3	1.646291E-2	-1.013123E+1	1.967868E-2	1.437409E-2	7.968532E-2	3.673486E-2
10/19/2017  17:38:53.938755	-1.486472E+0	1.573716E-2	8.827299E-3	-1.013887E+1	2.732853E-2	1.691808E-2	6.951371E-2	3.673486E-2
10/19/2017  17:38:53.939755	7.454021E-1	1.573716E-2	1.391770E-2	-1.015924E+1	1.712873E-2	2.455003E-2	7.205661E-2	2.655919E-2
10/19/2017  17:38:53.940755	1.007228E+0	1.828100E-2	2.664372E-2	-1.014651E+1	1.457878E-2	2.455003E-2	7.459952E-2	2.910311E-2
10/19/2017  17:38:53.941755	1.472413E+0	1.573716E-2	2.155331E-2	-1.014651E+1	2.222863E-2	1.437409E-2	8.731403E-2	3.164702E-2
10/19/2017  17:38:53.942755	1.220756E+0	1.573716E-2	2.409852E-2	-1.013378E+1	2.477858E-2	1.691808E-2	7.459952E-2	4.182269E-2
10/19/2017  17:38:53.943755	4.635274E-2	1.064948E-2	1.391770E-2	-1.013632E+1	2.477858E-2	1.691808E-2	6.442791E-2	2.910311E-2
10/19/2017  17:38:53.944755	-7.238726E-1	1.828100E-2	8.827299E-3	-1.013887E+1	1.712873E-2	1.946206E-2	7.459952E-2	2.910311E-2
10/19/2017  17:38:53.945755	-4.849248E-1	1.573716E-2	1.646291E-2	-1.014651E+1	2.477858E-2	2.455003E-2	7.205661E-2	3.164702E-2
								
10/19/2017  17:38:53.946755	-7.566315E-2	1.319332E-2	3.173413E-2	-1.013887E+1	2.222863E-2	2.200605E-2	7.968532E-2	3.164702E-2
10/19/2017  17:38:53.947755	-3.705349E-1	4.741205E-4	2.409852E-2	-1.013378E+1	1.457878E-2	1.437409E-2	7.714242E-2	3.673486E-2
10/19/2017  17:38:53.948755	4.889474E-2	8.105642E-3	-1.353514E-3	-1.013123E+1	1.712873E-2	4.198150E-3	7.205661E-2	2.655919E-2
10/19/2017  17:38:53.949755	1.632846E-1	2.336868E-2	1.137250E-2	-1.014142E+1	2.477858E-2	2.709402E-2	6.951371E-2	2.655919E-2
10/19/2017  17:38:53.950755	-1.646331E-1	1.828100E-2	2.155331E-2	-1.014396E+1	1.712873E-2	2.709402E-2	7.205661E-2	3.673486E-2
10/19/2017  17:38:53.951755	-2.332670E-1	3.100021E-2	1.900811E-2	-1.013632E+1	1.457878E-2	1.946206E-2	7.205661E-2	3.164702E-2
10/19/2017  17:38:53.952755	-2.103890E-1	1.319332E-2	1.391770E-2	-1.013887E+1	2.222863E-2	9.286120E-3	7.205661E-2	2.401527E-2
10/19/2017  17:38:53.953755	-4.239168E-1	-2.069720E-3	1.646291E-2	-1.014905E+1	2.732853E-2	2.200605E-2	6.697081E-2	2.910311E-2
10/19/2017  17:38:53.954755	-7.747125E-1	2.082484E-2	1.900811E-2	-1.014396E+1	2.222863E-2	2.963800E-2	7.205661E-2	2.401527E-2
10/19/2017  17:38:53.955755	-1.013660E+0	1.064948E-2	2.409852E-2	-1.013123E+1	6.928941E-3	1.691808E-2	8.477112E-2	2.655919E-2
10/19/2017  17:38:53.956755	1.574093E+0	5.561801E-3	2.664372E-2	-1.013887E+1	1.457878E-2	1.183011E-2	7.714242E-2	3.673486E-2
10/19/2017  17:38:53.957755	7.326921E-1	5.561801E-3	1.137250E-2	-1.013123E+1	1.829045E-3	1.691808E-2	6.442791E-2	3.164702E-2
10/19/2017  17:38:53.958755	2.547966E-1	1.319332E-2	8.827299E-3	-1.013378E+1	3.242842E-2	2.963800E-2	6.951371E-2	2.655919E-2
10/19/2017  17:38:53.959755	2.059615E+0	2.082484E-2	2.409852E-2	-1.014142E+1	2.477858E-2	2.709402E-2	8.222822E-2	3.927877E-2
10/19/2017  17:38:53.960755	1.510543E+0	1.064948E-2	2.918892E-2	-1.014142E+1	1.457878E-2	1.691808E-2	7.714242E-2	3.673486E-2
10/19/2017  17:38:53.961755	-2.990719E-2	5.561801E-3	1.900811E-2	-1.012614E+1	2.477858E-2	1.183011E-2	7.205661E-2	2.655919E-2
10/19/2017  17:38:53.962755	2.420866E-1	1.064948E-2	2.155331E-2	-1.011850E+1	1.967868E-2	2.455003E-2	7.714242E-2	2.910311E-2
10/19/2017  17:38:53.963755	-3.349469E-1	1.064948E-2	1.137250E-2	-1.013632E+1	3.242842E-2	2.709402E-2	6.697081E-2	1.638352E-2
10/19/2017  17:38:53.964755	-7.213306E-1	1.573716E-2	1.900811E-2	-1.015160E+1	2.222863E-2	2.455003E-2	6.442791E-2	2.401527E-2
10/19/2017  17:38:53.965755	-2.332670E-1	5.561801E-3	2.409852E-2	-1.013632E+1	1.202884E-2	2.200605E-2	8.222822E-2	2.655919E-2
10/19/2017  17:38:53.966755	9.465070E-2	1.064948E-2	1.900811E-2	-1.012869E+1	1.967868E-2	1.946206E-2	8.985693E-2	3.673486E-2
10/19/2017  17:38:53.967755	1.200707E-1	1.064948E-2	1.137250E-2	-1.012614E+1	2.987847E-2	2.455003E-2	6.697081E-2	3.164702E-2
10/19/2017  17:38:53.968755	5.143673E-2	1.319332E-2	1.646291E-2	-1.013887E+1	1.967868E-2	1.691808E-2	6.697081E-2	3.164702E-2
10/19/2017  17:38:53.969755	1.124447E-1	1.828100E-2	2.155331E-2	-1.013632E+1	1.202884E-2	1.691808E-2	7.205661E-2	2.910311E-2
10/19/2017  17:38:53.970755	2.497126E-1	1.828100E-2	1.900811E-2	-1.013632E+1	1.712873E-2	2.200605E-2	8.222822E-2	3.164702E-2
10/19/2017  17:38:53.971755	-6.041116E-2	1.064948E-2	1.900811E-2	-1.013378E+1	2.222863E-2	9.286120E-3	7.205661E-2	3.673486E-2
10/19/2017  17:38:53.972755	-6.145667E-1	3.017961E-3	1.391770E-2	-1.012359E+1	2.477858E-2	1.691808E-2	6.697081E-2	3.164702E-2
10/19/2017  17:38:53.973755	-9.348584E-1	1.064948E-2	1.137250E-2	-1.013887E+1	2.222863E-2	6.742135E-3	6.697081E-2	2.401527E-2
10/19/2017  17:38:53.974755	-7.035366E-1	2.845637E-2	1.646291E-2	-1.015669E+1	2.732853E-2	2.709402E-2	7.714242E-2	2.655919E-2
10/19/2017  17:38:53.975755	8.064101E-1	1.319332E-2	2.664372E-2	-1.013632E+1	1.712873E-2	2.200605E-2	7.714242E-2	3.164702E-2
10/19/2017  17:38:53.976755	1.485123E+0	1.319332E-2	1.900811E-2	-1.013632E+1	1.202884E-2	1.946206E-2	7.205661E-2	3.164702E-2
10/19/2017  17:38:53.977755	7.631961E-1	8.105642E-3	8.827299E-3	-1.013123E+1	2.222863E-2	1.183011E-2	7.205661E-2	3.164702E-2
10/19/2017  17:38:53.978755	-1.580526E+0	1.064948E-2	1.646291E-2	-1.014142E+1	2.477858E-2	2.455003E-2	6.697081E-2	2.655919E-2
								
10/19/2017  17:38:53.979755	-8.916444E-1	1.828100E-2	2.155331E-2	-1.014651E+1	2.222863E-2	2.963800E-2	7.205661E-2	2.147136E-2
10/19/2017  17:38:53.980755	7.148981E-1	8.105642E-3	1.646291E-2	-1.013887E+1	2.222863E-2	1.946206E-2	7.968532E-2	2.147136E-2
10/19/2017  17:38:53.981755	1.251260E+0	1.064948E-2	1.900811E-2	-1.015415E+1	1.712873E-2	1.183011E-2	7.459952E-2	3.419094E-2
10/19/2017  17:38:53.982755	3.183465E-1	8.105642E-3	2.155331E-2	-1.013378E+1	2.477858E-2	1.691808E-2	7.459952E-2	4.691052E-2
10/19/2017  17:38:53.983755	5.725463E-1	1.319332E-2	2.155331E-2	-1.011341E+1	2.987847E-2	2.455003E-2	6.951371E-2	2.655919E-2
10/19/2017  17:38:53.984755	-9.091514E-2	1.573716E-2	1.391770E-2	-1.013632E+1	2.987847E-2	2.455003E-2	6.951371E-2	2.401527E-2
10/19/2017  17:38:53.985755	-3.499119E-2	1.319332E-2	2.918892E-2	-1.014905E+1	1.967868E-2	2.200605E-2	7.968532E-2	2.147136E-2
10/19/2017  17:38:53.986755	2.827585E-1	1.064948E-2	2.664372E-2	-1.012869E+1	1.967868E-2	2.200605E-2	8.222822E-2	3.164702E-2
10/19/2017  17:38:53.987755	1.734526E-1	3.017961E-3	1.900811E-2	-1.012614E+1	1.967868E-2	1.946206E-2	7.459952E-2	3.419094E-2
10/19/2017  17:38:53.988755	-2.942750E-1	1.064948E-2	6.282096E-3	-1.013378E+1	2.477858E-2	9.286120E-3	6.951371E-2	3.164702E-2
10/19/2017  17:38:53.989755	-1.082294E+0	1.064948E-2	1.137250E-2	-1.013887E+1	2.222863E-2	1.946206E-2	8.477112E-2	2.910311E-2
10/19/2017  17:38:53.990755	-7.365826E-1	1.828100E-2	3.682453E-2	-1.013887E+1	2.477858E-2	3.472597E-2	7.968532E-2	2.401527E-2
10/19/2017  17:38:53.991755	1.581719E+0	1.828100E-2	2.155331E-2	-1.013378E+1	1.967868E-2	1.437409E-2	8.222822E-2	3.419094E-2
10/19/2017  17:38:53.992755	1.627475E+0	3.017961E-3	1.391770E-2	-1.012614E+1	2.477858E-2	1.183011E-2	7.205661E-2	3.673486E-2
10/19/2017  17:38:53.993755	-1.900530E-1	4.741205E-4	1.646291E-2	-1.013887E+1	2.477858E-2	2.200605E-2	7.205661E-2	2.910311E-2
10/19/2017  17:38:53.994755	-6.094827E-1	1.573716E-2	1.900811E-2	-1.014142E+1	1.967868E-2	2.709402E-2	7.205661E-2	2.910311E-2
10/19/2017  17:38:53.995755	-6.552386E-1	1.319332E-2	1.900811E-2	-1.013632E+1	2.477858E-2	1.946206E-2	7.714242E-2	2.910311E-2
10/19/2017  17:38:53.996755	-4.518788E-1	1.319332E-2	1.900811E-2	-1.013887E+1	2.222863E-2	2.455003E-2	7.714242E-2	3.164702E-2
10/19/2017  17:38:53.997755	3.183465E-1	-1.224508E-2	1.900811E-2	-1.013378E+1	3.497837E-2	1.437409E-2	6.697081E-2	3.673486E-2
10/19/2017  17:38:53.998755	1.291932E+0	1.319332E-2	1.391770E-2	-1.013123E+1	2.987847E-2	2.455003E-2	6.951371E-2	2.147136E-2
10/19/2017  17:38:53.999755	1.797789E+0	2.082484E-2	1.646291E-2	-1.013632E+1	3.497837E-2	2.455003E-2	7.968532E-2	2.910311E-2
10/19/2017  17:38:54.000755	6.793102E-1	1.319332E-2	2.155331E-2	-1.014651E+1	1.457878E-2	1.946206E-2	7.714242E-2	3.164702E-2
10/19/2017  17:38:54.001755	-9.933243E-1	5.561801E-3	2.155331E-2	-1.013378E+1	1.457878E-2	1.691808E-2	6.951371E-2	2.910311E-2
10/19/2017  17:38:54.002755	-2.353293E+0	1.573716E-2	1.137250E-2	-1.014651E+1	2.732853E-2	2.200605E-2	6.951371E-2	3.164702E-2
10/19/2017  17:38:54.003755	-5.586427E-1	1.573716E-2	1.646291E-2	-1.014142E+1	2.477858E-2	2.455003E-2	6.697081E-2	2.910311E-2
10/19/2017  17:38:54.004755	1.073607E-1	2.082484E-2	2.155331E-2	-1.013632E+1	2.222863E-2	1.946206E-2	7.205661E-2	3.164702E-2
10/19/2017  17:38:54.005755	1.839076E-2	1.319332E-2	1.900811E-2	-1.014142E+1	1.967868E-2	1.946206E-2	7.459952E-2	4.182269E-2
10/19/2017  17:38:54.006755	-9.571210E-3	1.573716E-2	1.900811E-2	-1.011596E+1	2.222863E-2	2.455003E-2	7.968532E-2	2.910311E-2
10/19/2017  17:38:54.007755	2.446286E-1	1.828100E-2	1.137250E-2	-1.013887E+1	2.477858E-2	2.455003E-2	6.951371E-2	3.164702E-2
10/19/2017  17:38:54.008755	6.538902E-1	1.828100E-2	1.646291E-2	-1.014651E+1	1.712873E-2	2.709402E-2	7.459952E-2	2.147136E-2
10/19/2017  17:38:54.009755	5.267903E-1	8.105642E-3	1.137250E-2	-1.013632E+1	1.202884E-2	1.183011E-2	7.968532E-2	3.927877E-2
10/19/2017  17:38:54.010755	4.937443E-1	1.064948E-2	1.391770E-2	-1.012359E+1	2.477858E-2	1.691808E-2	6.697081E-2	3.673486E-2
10/19/2017  17:38:54.011755	7.733641E-1	2.845637E-2	1.900811E-2	-1.013887E+1	3.242842E-2	2.455003E-2	7.205661E-2	3.419094E-2
								
10/19/2017  17:38:54.012755	2.855876E-2	1.573716E-2	1.646291E-2	-1.013632E+1	1.967868E-2	2.709402E-2	7.205661E-2	3.419094E-2
10/19/2017  17:38:54.013755	-8.052165E-1	1.573716E-2	2.918892E-2	-1.013632E+1	1.202884E-2	1.691808E-2	8.222822E-2	2.655919E-2
10/19/2017  17:38:54.014755	-1.321242E+0	1.828100E-2	1.900811E-2	-1.013887E+1	2.477858E-2	1.691808E-2	7.968532E-2	3.164702E-2
10/19/2017  17:38:54.015755	-6.374446E-1	1.064948E-2	1.900811E-2	-1.014142E+1	2.987847E-2	3.981394E-2	7.205661E-2	3.419094E-2
10/19/2017  17:38:54.016755	2.347476E-2	4.741205E-4	1.391770E-2	-1.013123E+1	2.477858E-2	2.963800E-2	7.714242E-2	3.164702E-2
10/19/2017  17:38:54.017755	3.259725E-1	1.319332E-2	2.409852E-2	-1.014396E+1	1.457878E-2	1.946206E-2	8.222822E-2	2.147136E-2
10/19/2017  17:38:54.018755	-5.281387E-1	-4.613560E-3	1.900811E-2	-1.014142E+1	1.712873E-2	1.691808E-2	7.205661E-2	3.927877E-2
10/19/2017  17:38:54.019755	-5.306807E-1	8.105642E-3	1.646291E-2	-1.012869E+1	2.987847E-2	1.946206E-2	6.697081E-2	2.910311E-2
10/19/2017  17:38:54.020755	4.632404E-1	1.828100E-2	1.137250E-2	-1.014142E+1	4.007827E-2	2.963800E-2	7.205661E-2	1.892744E-2
10/19/2017  17:38:54.021755	4.276524E-1	1.573716E-2	2.155331E-2	-1.014905E+1	1.712873E-2	2.963800E-2	7.205661E-2	3.164702E-2
10/19/2017  17:38:54.022755	2.014146E-1	1.064948E-2	1.900811E-2	-1.014142E+1	3.497837E-2	2.200605E-2	7.205661E-2	4.436661E-2
10/19/2017  17:38:54.023755	1.988726E-1	1.064948E-2	1.391770E-2	-1.013378E+1	2.222863E-2	1.691808E-2	7.714242E-2	3.673486E-2
10/19/2017  17:38:54.024755	2.166666E-1	1.573716E-2	8.827299E-3	-1.013887E+1	2.987847E-2	2.455003E-2	6.951371E-2	1.383961E-2
10/19/2017  17:38:54.025755	8.194071E-2	1.573716E-2	1.646291E-2	-1.014396E+1	2.222863E-2	2.455003E-2	7.205661E-2	2.401527E-2
10/19/2017  17:38:54.026755	-6.295316E-2	8.105642E-3	2.155331E-2	-1.014142E+1	1.457878E-2	1.691808E-2	8.222822E-2	4.182269E-2
10/19/2017  17:38:54.027755	5.652073E-2	5.561801E-3	1.900811E-2	-1.014142E+1	2.477858E-2	1.437409E-2	7.714242E-2	3.927877E-2
10/19/2017  17:38:54.028755	-1.824271E-1	1.828100E-2	1.646291E-2	-1.013887E+1	2.987847E-2	2.455003E-2	6.697081E-2	2.401527E-2
10/19/2017  17:38:54.029755	-2.307250E-1	1.828100E-2	1.900811E-2	-1.015415E+1	2.222863E-2	2.963800E-2	6.951371E-2	2.655919E-2
10/19/2017  17:38:54.030755	-6.094827E-1	3.017961E-3	3.173413E-2	-1.013887E+1	1.202884E-2	2.963800E-2	7.968532E-2	3.164702E-2
10/19/2017  17:38:54.031755	-1.445800E+0	1.573716E-2	1.900811E-2	-1.014142E+1	1.457878E-2	1.437409E-2	8.731403E-2	3.673486E-2
10/19/2017  17:38:54.032755	-4.213748E-1	8.105642E-3	3.682453E-2	-1.013887E+1	2.732853E-2	2.200605E-2	7.205661E-2	4.182269E-2
10/19/2017  17:38:54.033755	1.175287E-1	3.017961E-3	1.391770E-2	-1.013378E+1	2.477858E-2	1.946206E-2	6.697081E-2	2.910311E-2
10/19/2017  17:38:54.034755	7.199821E-1	2.082484E-2	6.282096E-3	-1.014142E+1	1.457878E-2	2.200605E-2	7.459952E-2	2.147136E-2
10/19/2017  17:38:54.035755	9.207999E-1	1.573716E-2	2.664372E-2	-1.013378E+1	1.457878E-2	2.455003E-2	7.968532E-2	3.164702E-2
10/19/2017  17:38:54.036755	1.502917E+0	5.561801E-3	2.409852E-2	-1.013123E+1	1.457878E-2	1.946206E-2	7.968532E-2	3.419094E-2
10/19/2017  17:38:54.037755	9.868919E-1	-4.613560E-3	1.900811E-2	-1.012614E+1	1.457878E-2	1.946206E-2	6.697081E-2	3.673486E-2
10/19/2017  17:38:54.038755	2.039566E-1	2.082484E-2	1.137250E-2	-1.013378E+1	2.222863E-2	2.200605E-2	7.205661E-2	2.655919E-2
10/19/2017  17:38:54.039755	-8.074715E-2	3.354405E-2	1.900811E-2	-1.013887E+1	2.732853E-2	2.963800E-2	7.968532E-2	2.655919E-2
10/19/2017  17:38:54.040755	1.556586E-1	1.828100E-2	2.155331E-2	-1.013632E+1	2.222863E-2	2.455003E-2	7.459952E-2	3.164702E-2
10/19/2017  17:38:54.041755	1.505746E-1	1.319332E-2	1.900811E-2	-1.012869E+1	9.478889E-3	1.946206E-2	6.697081E-2	3.673486E-2
10/19/2017  17:38:54.042755	-3.425729E-1	5.561801E-3	1.391770E-2	-1.013887E+1	1.967868E-2	1.691808E-2	6.951371E-2	3.673486E-2
10/19/2017  17:38:54.043755	-4.874668E-1	1.319332E-2	1.900811E-2	-1.013378E+1	2.222863E-2	1.946206E-2	6.697081E-2	3.419094E-2
10/19/2017  17:38:54.044755	-4.487215E-3	1.828100E-2	2.664372E-2	-1.013632E+1	2.222863E-2	2.963800E-2	7.459952E-2	3.164702E-2
								
10/19/2017  17:38:54.045755	8.448270E-2	1.064948E-2	2.155331E-2	-1.014396E+1	1.457878E-2	1.946206E-2	7.968532E-2	2.401527E-2
10/19/2017  17:38:54.046755	1.358024E+0	1.064948E-2	1.137250E-2	-1.013123E+1	1.967868E-2	9.286120E-3	7.459952E-2	3.164702E-2
10/19/2017  17:38:54.047755	7.021881E-1	5.561801E-3	1.646291E-2	-1.013378E+1	2.732853E-2	1.946206E-2	6.951371E-2	4.691052E-2
10/19/2017  17:38:54.048755	2.446286E-1	2.082484E-2	1.137250E-2	-1.013632E+1	2.732853E-2	3.726996E-2	7.714242E-2	2.401527E-2
10/19/2017  17:38:54.049755	-3.425729E-1	2.845637E-2	1.646291E-2	-1.014396E+1	1.457878E-2	2.455003E-2	8.222822E-2	2.910311E-2
10/19/2017  17:38:54.050755	-6.857426E-1	8.105642E-3	2.409852E-2	-1.014651E+1	1.202884E-2	1.437409E-2	7.205661E-2	3.673486E-2
10/19/2017  17:38:54.051755	-2.612290E-1	4.741205E-4	1.900811E-2	-1.013378E+1	1.967868E-2	1.691808E-2	6.697081E-2	3.927877E-2
10/19/2017  17:38:54.052755	1.197878E+0	1.573716E-2	1.391770E-2	-1.013632E+1	2.732853E-2	3.218199E-2	7.968532E-2	3.164702E-2
10/19/2017  17:38:54.053755	1.289390E+0	1.828100E-2	1.900811E-2	-1.013887E+1	2.987847E-2	2.200605E-2	6.697081E-2	2.401527E-2
10/19/2017  17:38:54.054755	2.395446E-1	1.828100E-2	1.646291E-2	-1.014651E+1	2.477858E-2	3.218199E-2	7.205661E-2	2.401527E-2
10/19/2017  17:38:54.055755	-1.181432E+0	1.573716E-2	3.682453E-2	-1.013887E+1	1.202884E-2	2.709402E-2	8.222822E-2	3.164702E-2
10/19/2017  17:38:54.056755	-4.645888E-1	3.017961E-3	2.409852E-2	-1.013123E+1	1.457878E-2	1.691808E-2	8.222822E-2	3.673486E-2
10/19/2017  17:38:54.057755	4.429044E-1	5.561801E-3	-1.353514E-3	-1.013632E+1	2.222863E-2	1.691808E-2	6.951371E-2	4.182269E-2
10/19/2017  17:38:54.058755	4.835763E-1	1.828100E-2	1.391770E-2	-1.014396E+1	2.222863E-2	2.709402E-2	6.697081E-2	2.655919E-2
10/19/2017  17:38:54.059755	3.844384E-1	2.082484E-2	1.900811E-2	-1.014396E+1	2.222863E-2	1.691808E-2	7.205661E-2	3.673486E-2
10/19/2017  17:38:54.060755	-1.585610E+0	2.591253E-2	2.409852E-2	-1.014142E+1	2.222863E-2	1.946206E-2	8.731403E-2	3.419094E-2
10/19/2017  17:38:54.061755	-1.028912E+0	1.064948E-2	1.646291E-2	-1.013632E+1	1.712873E-2	1.691808E-2	7.459952E-2	3.927877E-2
10/19/2017  17:38:54.062755	7.708221E-1	8.105642E-3	1.137250E-2	-1.014651E+1	2.987847E-2	1.946206E-2	6.697081E-2	3.419094E-2
10/19/2017  17:38:54.063755	1.281764E+0	1.064948E-2	1.900811E-2	-1.013378E+1	2.222863E-2	1.946206E-2	7.205661E-2	2.910311E-2
10/19/2017  17:38:54.064755	7.428601E-1	1.319332E-2	1.900811E-2	-1.013123E+1	3.497837E-2	2.455003E-2	7.459952E-2	2.401527E-2
10/19/2017  17:38:54.065755	-6.272767E-1	1.319332E-2	2.918892E-2	-1.013887E+1	1.457878E-2	2.200605E-2	7.714242E-2	3.164702E-2
10/19/2017  17:38:54.066755	-1.341291E-1	1.573716E-2	1.391770E-2	-1.013887E+1	1.457878E-2	1.691808E-2	7.205661E-2	2.910311E-2
10/19/2017  17:38:54.067755	-3.146109E-1	1.319332E-2	2.155331E-2	-1.015160E+1	2.222863E-2	1.691808E-2	7.459952E-2	3.164702E-2
10/19/2017  17:38:54.068755	5.115383E-1	2.082484E-2	2.155331E-2	-1.013632E+1	2.222863E-2	2.709402E-2	7.205661E-2	3.673486E-2
10/19/2017  17:38:54.069755	1.251260E+0	1.064948E-2	3.427933E-2	-1.012359E+1	1.202884E-2	2.455003E-2	8.222822E-2	3.164702E-2
10/19/2017  17:38:54.070755	-1.465521E-2	3.017961E-3	1.900811E-2	-1.012869E+1	1.712873E-2	1.691808E-2	7.714242E-2	2.401527E-2
10/19/2017  17:38:54.071755	-1.875110E-1	1.573716E-2	1.137250E-2	-1.012869E+1	2.732853E-2	1.946206E-2	7.205661E-2	3.164702E-2
10/19/2017  17:38:54.072755	-5.052608E-1	1.064948E-2	1.137250E-2	-1.014142E+1	2.477858E-2	2.200605E-2	7.714242E-2	2.147136E-2
10/19/2017  17:38:54.073755	-4.162908E-1	2.082484E-2	2.155331E-2	-1.014651E+1	1.457878E-2	3.472597E-2	6.951371E-2	2.147136E-2
10/19/2017  17:38:54.074755	-1.493811E-1	-4.613560E-3	1.137250E-2	-1.013123E+1	1.202884E-2	1.691808E-2	7.968532E-2	3.673486E-2
10/19/2017  17:38:54.075755	-2.841070E-1	8.105642E-3	1.137250E-2	-1.012614E+1	2.732853E-2	1.183011E-2	6.697081E-2	3.927877E-2
10/19/2017  17:38:54.076755	-8.583114E-2	2.082484E-2	2.155331E-2	-1.013887E+1	2.732853E-2	2.709402E-2	6.951371E-2	2.910311E-2
10/19/2017  17:38:54.077755	1.988726E-1	2.845637E-2	1.900811E-2	-1.013887E+1	2.222863E-2	2.455003E-2	7.459952E-2	2.655919E-2
								
10/19/2017  17:38:54.078755	1.531166E-1	8.105642E-3	2.409852E-2	-1.012614E+1	1.457878E-2	1.183011E-2	7.714242E-2	3.419094E-2
10/19/2017  17:38:54.079755	6.414672E-2	3.017961E-3	1.137250E-2	-1.013632E+1	2.987847E-2	1.691808E-2	6.951371E-2	3.673486E-2
10/19/2017  17:38:54.080755	1.683686E-1	1.828100E-2	1.137250E-2	-1.014396E+1	2.732853E-2	2.709402E-2	6.697081E-2	2.910311E-2
10/19/2017  17:38:54.081755	4.889474E-2	3.100021E-2	2.664372E-2	-1.014142E+1	6.928941E-3	2.455003E-2	7.714242E-2	2.147136E-2
10/19/2017  17:38:54.082755	2.166666E-1	8.105642E-3	2.155331E-2	-1.013632E+1	1.712873E-2	2.200605E-2	7.968532E-2	3.419094E-2
10/19/2017  17:38:54.083755	7.276081E-1	-7.157401E-3	1.900811E-2	-1.013887E+1	3.242842E-2	1.183011E-2	6.697081E-2	3.419094E-2
10/19/2017  17:38:54.084755	5.089963E-1	1.319332E-2	1.391770E-2	-1.014396E+1	2.477858E-2	2.963800E-2	7.205661E-2	2.401527E-2
10/19/2017  17:38:54.085755	-1.430548E+0	1.828100E-2	2.155331E-2	-1.014396E+1	2.222863E-2	2.963800E-2	7.968532E-2	2.910311E-2
10/19/2017  17:38:54.086755	1.322436E+0	5.561801E-3	2.664372E-2	-1.013632E+1	1.712873E-2	9.286120E-3	7.459952E-2	3.673486E-2
10/19/2017  17:38:54.087755	1.884217E+0	3.017961E-3	1.391770E-2	-1.012869E+1	3.242842E-2	1.691808E-2	6.951371E-2	3.673486E-2
10/19/2017  17:38:54.088755	-9.907823E-1	1.573716E-2	8.827299E-3	-1.013887E+1	2.732853E-2	2.963800E-2	7.205661E-2	2.147136E-2
10/19/2017  17:38:54.089755	1.584877E-2	1.828100E-2	2.155331E-2	-1.014142E+1	2.477858E-2	2.709402E-2	7.714242E-2	2.147136E-2
10/19/2017  17:38:54.090755	-7.365826E-1	1.319332E-2	2.918892E-2	-1.014651E+1	1.457878E-2	2.455003E-2	7.459952E-2	2.910311E-2
10/19/2017  17:38:54.091755	-2.066047E+0	3.017961E-3	1.391770E-2	-1.013632E+1	2.987847E-2	1.691808E-2	6.697081E-2	2.401527E-2
10/19/2017  17:38:54.092755	-9.755303E-1	1.319332E-2	1.137250E-2	-1.013378E+1	2.987847E-2	2.455003E-2	7.459952E-2	2.910311E-2
10/19/2017  17:38:54.093755	1.098740E+0	2.591253E-2	2.155331E-2	-1.013887E+1	2.477858E-2	2.709402E-2	7.968532E-2	2.147136E-2
10/19/2017  17:38:54.094755	2.512091E+0	1.064948E-2	2.155331E-2	-1.014142E+1	1.202884E-2	1.691808E-2	7.459952E-2	3.164702E-2
10/19/2017  17:38:54.095755	7.504861E-1	8.105642E-3	2.664372E-2	-1.013887E+1	2.222863E-2	1.946206E-2	6.951371E-2	3.673486E-2
10/19/2017  17:38:54.096755	3.488505E-1	1.064948E-2	1.900811E-2	-1.013378E+1	2.222863E-2	1.437409E-2	8.477112E-2	3.673486E-2
10/19/2017  17:38:54.097755	-1.000950E+0	2.082484E-2	1.137250E-2	-1.013887E+1	3.242842E-2	1.437409E-2	6.697081E-2	2.910311E-2
10/19/2017  17:38:54.098755	-3.883289E-1	1.828100E-2	1.137250E-2	-1.014651E+1	2.477858E-2	2.709402E-2	6.697081E-2	2.910311E-2
10/19/2017  17:38:54.099755	-3.069849E-1	2.082484E-2	2.664372E-2	-1.014396E+1	6.928941E-3	1.437409E-2	7.968532E-2	3.164702E-2
10/19/2017  17:38:54.100755	5.680776E-3	1.319332E-2	2.409852E-2	-1.013887E+1	1.712873E-2	1.946206E-2	8.222822E-2	3.927877E-2
10/19/2017  17:38:54.101755	-1.239611E-1	5.561801E-3	1.900811E-2	-1.012869E+1	2.477858E-2	3.472597E-2	7.205661E-2	4.182269E-2
10/19/2017  17:38:54.102755	-3.451149E-1	8.105642E-3	1.137250E-2	-1.013887E+1	2.222863E-2	1.946206E-2	6.697081E-2	2.910311E-2
10/19/2017  17:38:54.103755	-2.993589E-1	1.319332E-2	2.155331E-2	-1.013887E+1	2.477858E-2	6.742135E-3	7.459952E-2	2.147136E-2
10/19/2017  17:38:54.104755	-1.087091E-1	1.828100E-2	1.900811E-2	-1.015160E+1	1.457878E-2	2.963800E-2	7.459952E-2	2.655919E-2
10/19/2017  17:38:54.105755	1.584877E-2	1.319332E-2	2.664372E-2	-1.013632E+1	1.457878E-2	2.200605E-2	7.968532E-2	3.164702E-2
10/19/2017  17:38:54.106755	2.093276E-2	1.319332E-2	1.646291E-2	-1.013378E+1	9.478889E-3	1.183011E-2	7.205661E-2	3.419094E-2
10/19/2017  17:38:54.107755	1.683686E-1	1.319332E-2	1.646291E-2	-1.013632E+1	2.222863E-2	2.200605E-2	7.459952E-2	2.910311E-2
10/19/2017  17:38:54.108755	-3.244919E-2	1.319332E-2	1.900811E-2	-1.013887E+1	3.752832E-2	2.200605E-2	7.968532E-2	3.673486E-2
10/19/2017  17:38:54.109755	-4.188328E-1	1.828100E-2	2.664372E-2	-1.013887E+1	2.222863E-2	3.472597E-2	7.459952E-2	2.910311E-2
10/19/2017  17:38:54.110755	-4.976348E-1	8.105642E-3	2.155331E-2	-1.013632E+1	1.457878E-2	1.946206E-2	8.222822E-2	2.655919E-2
								
10/19/2017  17:38:54.111755	3.335985E-1	8.105642E-3	2.664372E-2	-1.014142E+1	1.457878E-2	1.691808E-2	7.459952E-2	3.673486E-2
10/19/2017  17:38:54.112755	3.386825E-1	5.561801E-3	1.391770E-2	-1.012614E+1	2.732853E-2	1.946206E-2	6.951371E-2	3.673486E-2
10/19/2017  17:38:54.113755	4.429044E-1	1.064948E-2	1.137250E-2	-1.014651E+1	2.732853E-2	2.709402E-2	6.951371E-2	2.401527E-2
10/19/2017  17:38:54.114755	-8.560564E-1	1.828100E-2	1.137250E-2	-1.014142E+1	1.967868E-2	2.455003E-2	7.205661E-2	2.147136E-2
10/19/2017  17:38:54.115755	-1.087378E+0	1.064948E-2	2.155331E-2	-1.015669E+1	1.712873E-2	1.183011E-2	7.968532E-2	3.164702E-2
10/19/2017  17:38:54.116755	1.729155E+0	3.017961E-3	2.918892E-2	-1.013123E+1	2.477858E-2	2.200605E-2	7.205661E-2	3.673486E-2
10/19/2017  17:38:54.117755	2.026569E+0	1.064948E-2	6.282096E-3	-1.013378E+1	2.732853E-2	2.963800E-2	7.714242E-2	2.910311E-2
10/19/2017  17:38:54.118755	9.309679E-1	2.336868E-2	1.137250E-2	-1.013887E+1	1.712873E-2	2.455003E-2	7.459952E-2	2.147136E-2
10/19/2017  17:38:54.119755	2.064986E-1	1.064948E-2	2.409852E-2	-1.014142E+1	1.202884E-2	1.946206E-2	7.459952E-2	2.910311E-2
10/19/2017  17:38:54.120755	-1.976790E-1	1.064948E-2	2.918892E-2	-1.013632E+1	2.477858E-2	1.946206E-2	7.459952E-2	3.673486E-2
10/19/2017  17:38:54.121755	-1.112511E-1	8.105642E-3	1.900811E-2	-1.013887E+1	1.967868E-2	1.946206E-2	7.714242E-2	2.910311E-2
10/19/2017  17:38:54.122755	-9.571210E-3	8.105642E-3	6.282096E-3	-1.013123E+1	2.732853E-2	1.183011E-2	7.714242E-2	3.419094E-2
10/19/2017  17:38:54.123755	-2.586870E-1	1.064948E-2	1.900811E-2	-1.014651E+1	1.712873E-2	2.963800E-2	7.205661E-2	2.147136E-2
10/19/2017  17:38:54.124755	3.183465E-1	1.064948E-2	2.664372E-2	-1.013632E+1	1.967868E-2	3.218199E-2	8.222822E-2	2.655919E-2
10/19/2017  17:38:54.125755	1.541047E+0	2.082484E-2	2.664372E-2	-1.013632E+1	2.732853E-2	2.200605E-2	7.459952E-2	3.164702E-2
10/19/2017  17:38:54.126755	1.584877E-2	1.319332E-2	1.900811E-2	-1.014142E+1	1.967868E-2	1.691808E-2	7.459952E-2	2.910311E-2
10/19/2017  17:38:54.127755	-2.030459E+0	1.319332E-2	8.827299E-3	-1.013632E+1	1.457878E-2	1.946206E-2	6.697081E-2	2.401527E-2
10/19/2017  17:38:54.128755	-1.463594E+0	1.828100E-2	1.646291E-2	-1.014651E+1	2.477858E-2	2.963800E-2	8.222822E-2	2.401527E-2
10/19/2017  17:38:54.129755	-4.772988E-1	1.319332E-2	2.155331E-2	-1.013632E+1	2.222863E-2	2.455003E-2	8.477112E-2	3.164702E-2
10/19/2017  17:38:54.130755	8.216620E-1	8.105642E-3	2.918892E-2	-1.013123E+1	1.712873E-2	1.437409E-2	7.968532E-2	3.927877E-2
10/19/2017  17:38:54.131755	9.538459E-1	3.017961E-3	1.391770E-2	-1.012614E+1	9.478889E-3	1.691808E-2	7.459952E-2	3.164702E-2
10/19/2017  17:38:54.132755	3.488505E-1	1.319332E-2	2.155331E-2	-1.014651E+1	2.222863E-2	1.691808E-2	6.951371E-2	2.910311E-2
10/19/2017  17:38:54.133755	1.175000E+0	2.082484E-2	2.155331E-2	-1.014396E+1	1.457878E-2	2.709402E-2	8.222822E-2	3.673486E-2
10/19/2017  17:38:54.134755	3.310565E-1	1.064948E-2	2.918892E-2	-1.013887E+1	1.712873E-2	9.286120E-3	8.477112E-2	3.673486E-2
10/19/2017  17:38:54.135755	-4.595048E-1	5.561801E-3	1.391770E-2	-1.013378E+1	2.732853E-2	1.183011E-2	6.951371E-2	3.164702E-2
10/19/2017  17:38:54.136755	1.937886E-1	1.828100E-2	1.137250E-2	-1.015669E+1	2.732853E-2	1.437409E-2	6.188501E-2	2.147136E-2
10/19/2017  17:38:54.137755	1.319894E+0	2.082484E-2	1.900811E-2	-1.014651E+1	2.222863E-2	2.709402E-2	7.968532E-2	2.655919E-2
10/19/2017  17:38:54.138755	-1.315871E-1	5.561801E-3	2.409852E-2	-1.013632E+1	1.457878E-2	2.200605E-2	7.459952E-2	3.673486E-2
10/19/2017  17:38:54.139755	-3.984969E-1	1.064948E-2	1.900811E-2	-1.013123E+1	2.477858E-2	1.183011E-2	7.714242E-2	2.910311E-2
10/19/2017  17:38:54.140755	-5.078028E-1	1.319332E-2	1.137250E-2	-1.013887E+1	2.987847E-2	2.200605E-2	8.731403E-2	3.164702E-2
10/19/2017  17:38:54.141755	-4.849248E-1	2.082484E-2	3.173413E-2	-1.014651E+1	2.732853E-2	3.218199E-2	7.714242E-2	2.655919E-2
10/19/2017  17:38:54.142755	-4.976348E-1	1.319332E-2	2.155331E-2	-1.013887E+1	1.457878E-2	2.200605E-2	7.714242E-2	2.910311E-2
10/19/2017  17:38:54.143755	-1.620911E-1	5.561801E-3	1.391770E-2	-1.013887E+1	2.222863E-2	6.742135E-3	7.205661E-2	3.164702E-2
								
10/19/2017  17:38:54.144755	-6.145667E-1	5.561801E-3	1.137250E-2	-1.014396E+1	2.477858E-2	1.946206E-2	7.205661E-2	3.164702E-2
10/19/2017  17:38:54.145755	-6.857426E-1	2.082484E-2	1.646291E-2	-1.014142E+1	2.222863E-2	3.726996E-2	7.205661E-2	3.419094E-2
10/19/2017  17:38:54.146755	6.818522E-1	2.845637E-2	2.664372E-2	-1.013887E+1	1.202884E-2	1.946206E-2	7.968532E-2	3.164702E-2
10/19/2017  17:38:54.147755	1.839076E-2	8.105642E-3	2.409852E-2	-1.012869E+1	1.202884E-2	9.286120E-3	7.968532E-2	2.910311E-2
10/19/2017  17:38:54.148755	2.497126E-1	-7.157401E-3	1.137250E-2	-1.014396E+1	3.752832E-2	1.691808E-2	7.205661E-2	3.673486E-2
10/19/2017  17:38:54.149755	2.064986E-1	8.105642E-3	1.137250E-2	-1.013632E+1	2.477858E-2	2.200605E-2	7.459952E-2	3.164702E-2
10/19/2017  17:38:54.150755	7.098141E-1	2.082484E-2	1.646291E-2	-1.013632E+1	2.732853E-2	2.709402E-2	8.222822E-2	2.655919E-2
10/19/2017  17:38:54.151755	9.465070E-2	1.064948E-2	1.900811E-2	-1.014142E+1	1.457878E-2	2.200605E-2	7.459952E-2	3.164702E-2
10/19/2017  17:38:54.152755	-3.273209E-1	8.105642E-3	1.900811E-2	-1.012869E+1	9.478889E-3	1.691808E-2	7.205661E-2	3.164702E-2
10/19/2017  17:38:54.153755	4.381074E-2	1.064948E-2	8.827299E-3	-1.013123E+1	2.222863E-2	1.437409E-2	6.951371E-2	2.910311E-2
10/19/2017  17:38:54.154755	6.411802E-1	2.082484E-2	1.137250E-2	-1.014651E+1	2.732853E-2	2.709402E-2	7.205661E-2	1.892744E-2
10/19/2017  17:38:54.155755	2.140959E+0	1.828100E-2	1.646291E-2	-1.014905E+1	1.202884E-2	2.455003E-2	8.477112E-2	3.419094E-2
10/19/2017  17:38:54.156755	1.553757E+0	3.017961E-3	2.155331E-2	-1.013378E+1	9.478889E-3	1.437409E-2	7.968532E-2	4.691052E-2
10/19/2017  17:38:54.157755	8.089520E-1	1.064948E-2	1.137250E-2	-1.013378E+1	2.477858E-2	9.286120E-3	6.951371E-2	2.910311E-2
10/19/2017  17:38:54.158755	-9.145224E-1	1.828100E-2	1.900811E-2	-1.014651E+1	2.987847E-2	2.455003E-2	6.951371E-2	2.401527E-2
10/19/2017  17:38:54.159755	-1.272944E+0	1.319332E-2	1.900811E-2	-1.014396E+1	1.457878E-2	3.472597E-2	7.459952E-2	2.401527E-2
10/19/2017  17:38:54.160755	-6.857426E-1	4.741205E-4	1.646291E-2	-1.014396E+1	2.222863E-2	1.946206E-2	8.222822E-2	2.910311E-2
10/19/2017  17:38:54.161755	-1.468391E-1	8.105642E-3	1.391770E-2	-1.013123E+1	1.967868E-2	1.691808E-2	7.205661E-2	2.910311E-2
10/19/2017  17:38:54.162755	2.093276E-2	2.082484E-2	1.646291E-2	-1.013632E+1	3.242842E-2	1.946206E-2	7.205661E-2	3.419094E-2
10/19/2017  17:38:54.163755	2.547966E-1	1.828100E-2	1.646291E-2	-1.014142E+1	2.222863E-2	2.455003E-2	6.697081E-2	2.655919E-2
10/19/2017  17:38:54.164755	-7.645445E-1	1.319332E-2	1.191689E-3	-1.013632E+1	9.478889E-3	2.455003E-2	7.714242E-2	2.910311E-2
10/19/2017  17:38:54.165755	-6.450706E-1	1.573716E-2	2.155331E-2	-1.013123E+1	1.712873E-2	1.946206E-2	7.968532E-2	3.673486E-2
10/19/2017  17:38:54.166755	5.293323E-1	8.105642E-3	2.155331E-2	-1.014142E+1	2.477858E-2	1.946206E-2	7.459952E-2	3.164702E-2
10/19/2017  17:38:54.167755	1.047900E+0	1.573716E-2	1.646291E-2	-1.013887E+1	1.457878E-2	1.946206E-2	6.951371E-2	2.401527E-2
10/19/2017  17:38:54.168755	-5.332227E-1	2.082484E-2	2.664372E-2	-1.014651E+1	1.712873E-2	1.183011E-2	7.459952E-2	1.129569E-2
10/19/2017  17:38:54.169755	-1.181432E+0	8.105642E-3	2.155331E-2	-1.014396E+1	1.712873E-2	2.200605E-2	8.477112E-2	3.164702E-2
10/19/2017  17:38:54.170755	-1.509350E+0	5.561801E-3	2.155331E-2	-1.013378E+1	1.967868E-2	1.437409E-2	7.205661E-2	4.182269E-2
10/19/2017  17:38:54.171755	-1.877940E+0	5.561801E-3	1.137250E-2	-1.013887E+1	1.712873E-2	1.691808E-2	6.951371E-2	2.910311E-2
10/19/2017  17:38:54.172755	-1.107714E+0	1.828100E-2	1.137250E-2	-1.014651E+1	2.477858E-2	2.709402E-2	7.714242E-2	2.655919E-2
10/19/2017  17:38:54.173755	3.678867E+0	1.828100E-2	2.409852E-2	-1.014396E+1	3.242842E-2	2.963800E-2	8.222822E-2	3.673486E-2
10/19/2017  17:38:54.174755	2.275685E+0	8.105642E-3	1.900811E-2	-1.012614E+1	1.457878E-2	1.946206E-2	7.459952E-2	3.419094E-2
10/19/2017  17:38:54.175755	-1.285654E+0	8.105642E-3	1.900811E-2	-1.013123E+1	1.967868E-2	1.691808E-2	6.951371E-2	2.147136E-2
10/19/2017  17:38:54.176755	-1.300906E+0	1.064948E-2	8.827299E-3	-1.013887E+1	1.967868E-2	1.946206E-2	7.205661E-2	2.401527E-2
								
10/19/2017  17:38:54.177755	2.293766E-1	1.064948E-2	1.900811E-2	-1.014142E+1	1.712873E-2	1.946206E-2	7.459952E-2	3.164702E-2
10/19/2017  17:38:54.178755	1.825751E+0	3.017961E-3	2.918892E-2	-1.011596E+1	1.457878E-2	1.946206E-2	8.731403E-2	3.419094E-2
10/19/2017  17:38:54.179755	1.927431E+0	1.319332E-2	1.391770E-2	-1.012869E+1	2.477858E-2	1.183011E-2	7.459952E-2	2.147136E-2
10/19/2017  17:38:54.180755	-1.163351E-1	1.573716E-2	1.137250E-2	-1.015669E+1	2.732853E-2	1.691808E-2	6.951371E-2	3.419094E-2
10/19/2017  17:38:54.181755	-9.602784E-1	1.828100E-2	2.664372E-2	-1.015160E+1	2.222863E-2	2.709402E-2	6.951371E-2	2.910311E-2
10/19/2017  17:38:54.182755	-1.671751E-1	2.845637E-2	2.664372E-2	-1.014142E+1	1.457878E-2	2.963800E-2	8.222822E-2	3.164702E-2
10/19/2017  17:38:54.183755	-1.214191E-1	1.828100E-2	3.173413E-2	-1.013632E+1	1.457878E-2	1.946206E-2	7.968532E-2	3.164702E-2
10/19/2017  17:38:54.184755	3.717284E-1	4.741205E-4	1.900811E-2	-1.013123E+1	1.712873E-2	1.437409E-2	6.951371E-2	3.673486E-2
10/19/2017  17:38:54.185755	6.360962E-1	5.561801E-3	1.137250E-2	-1.013378E+1	1.967868E-2	6.742135E-3	6.951371E-2	3.164702E-2
10/19/2017  17:38:54.186755	5.623783E-1	1.064948E-2	1.137250E-2	-1.013887E+1	2.732853E-2	2.709402E-2	6.951371E-2	2.401527E-2
10/19/2017  17:38:54.187755	5.217063E-1	2.082484E-2	1.391770E-2	-1.013887E+1	2.477858E-2	1.946206E-2	7.459952E-2	2.401527E-2
10/19/2017  17:38:54.188755	3.030945E-1	1.319332E-2	2.409852E-2	-1.014651E+1	1.712873E-2	1.946206E-2	7.968532E-2	3.164702E-2
10/19/2017  17:38:54.189755	3.641025E-1	1.319332E-2	1.646291E-2	-1.013378E+1	1.967868E-2	1.183011E-2	7.205661E-2	2.147136E-2
10/19/2017  17:38:54.190755	-4.487215E-3	2.591253E-2	1.900811E-2	-1.013123E+1	2.987847E-2	1.691808E-2	7.714242E-2	3.927877E-2
10/19/2017  17:38:54.191755	4.454464E-1	5.561801E-3	1.137250E-2	-1.012614E+1	2.987847E-2	1.946206E-2	6.697081E-2	3.927877E-2
10/19/2017  17:38:54.192755	1.726613E+0	8.105642E-3	1.137250E-2	-1.015160E+1	2.222863E-2	1.946206E-2	6.951371E-2	2.147136E-2
10/19/2017  17:38:54.193755	1.436825E+0	2.082484E-2	1.391770E-2	-1.013632E+1	1.712873E-2	2.963800E-2	7.459952E-2	2.401527E-2
10/19/2017  17:38:54.194755	-3.476569E-1	1.573716E-2	2.664372E-2	-1.013123E+1	1.712873E-2	2.200605E-2	8.222822E-2	3.419094E-2
10/19/2017  17:38:54.195755	-1.829642E+0	1.064948E-2	2.155331E-2	-1.013632E+1	1.967868E-2	1.437409E-2	7.459952E-2	3.673486E-2
10/19/2017  17:38:54.196755	-8.484305E-1	1.064948E-2	1.900811E-2	-1.013632E+1	1.457878E-2	2.200605E-2	7.714242E-2	3.164702E-2
10/19/2017  17:38:54.197755	-1.976790E-1	1.573716E-2	6.282096E-3	-1.013887E+1	2.987847E-2	1.691808E-2	7.205661E-2	2.401527E-2
10/19/2017  17:38:54.198755	-1.519231E-1	2.082484E-2	2.155331E-2	-1.014142E+1	1.967868E-2	2.455003E-2	7.714242E-2	3.673486E-2
10/19/2017  17:38:54.199755	-2.942750E-1	1.064948E-2	2.155331E-2	-1.014142E+1	1.967868E-2	3.472597E-2	7.459952E-2	2.655919E-2
10/19/2017  17:38:54.200755	-1.392131E-1	1.319332E-2	1.900811E-2	-1.013378E+1	1.202884E-2	1.946206E-2	8.222822E-2	2.910311E-2
10/19/2017  17:38:54.201755	-4.976348E-1	8.105642E-3	2.155331E-2	-1.014142E+1	1.712873E-2	9.286120E-3	6.951371E-2	3.673486E-2
10/19/2017  17:38:54.202755	-4.487215E-3	3.017961E-3	1.900811E-2	-1.013123E+1	1.967868E-2	1.437409E-2	6.697081E-2	3.927877E-2
10/19/2017  17:38:54.203755	3.539345E-1	1.573716E-2	1.137250E-2	-1.013378E+1	2.987847E-2	2.963800E-2	7.714242E-2	3.164702E-2
10/19/2017  17:38:54.204755	1.632846E-1	1.828100E-2	1.137250E-2	-1.014142E+1	1.712873E-2	2.709402E-2	7.714242E-2	2.401527E-2
10/19/2017  17:38:54.205755	-5.967727E-1	1.828100E-2	1.900811E-2	-1.013887E+1	1.967868E-2	2.455003E-2	6.442791E-2	3.164702E-2
10/19/2017  17:38:54.206755	2.929265E-1	1.064948E-2	2.918892E-2	-1.013632E+1	2.477858E-2	2.963800E-2	7.968532E-2	3.927877E-2
10/19/2017  17:38:54.207755	3.005525E-1	1.064948E-2	1.137250E-2	-1.013123E+1	2.222863E-2	1.183011E-2	7.459952E-2	3.419094E-2
10/19/2017  17:38:54.208755	-6.041116E-2	1.319332E-2	6.282096E-3	-1.013887E+1	2.732853E-2	1.183011E-2	6.951371E-2	2.655919E-2
10/19/2017  17:38:54.209755	-7.620025E-1	1.064948E-2	2.155331E-2	-1.014905E+1	2.222863E-2	2.709402E-2	7.205661E-2	2.401527E-2
								
10/19/2017  17:38:54.210755	-1.748011E-1	1.573716E-2	2.664372E-2	-1.014142E+1	1.712873E-2	1.183011E-2	7.968532E-2	3.164702E-2
10/19/2017  17:38:54.211755	-6.476126E-1	2.336868E-2	2.155331E-2	-1.012359E+1	1.967868E-2	1.691808E-2	8.477112E-2	3.419094E-2
10/19/2017  17:38:54.212755	-1.077210E+0	1.064948E-2	1.646291E-2	-1.013632E+1	2.732853E-2	1.691808E-2	7.459952E-2	3.927877E-2
10/19/2017  17:38:54.213755	-3.273209E-1	8.105642E-3	8.827299E-3	-1.013632E+1	2.732853E-2	2.200605E-2	6.951371E-2	3.164702E-2
10/19/2017  17:38:54.214755	6.538902E-1	1.064948E-2	2.155331E-2	-1.012869E+1	2.987847E-2	2.709402E-2	6.951371E-2	2.401527E-2
10/19/2017  17:38:54.215755	1.566467E+0	2.082484E-2	2.155331E-2	-1.013632E+1	4.262821E-2	2.200605E-2	7.968532E-2	2.655919E-2
10/19/2017  17:38:54.216755	1.004686E+0	1.319332E-2	2.409852E-2	-1.013632E+1	1.457878E-2	2.455003E-2	7.968532E-2	2.910311E-2
10/19/2017  17:38:54.217755	2.751325E-1	8.105642E-3	1.391770E-2	-1.012869E+1	9.478889E-3	1.691808E-2	6.697081E-2	2.655919E-2
10/19/2017  17:38:54.218755	-5.154288E-1	8.105642E-3	1.391770E-2	-1.014651E+1	2.732853E-2	1.183011E-2	7.205661E-2	2.910311E-2
10/19/2017  17:38:54.219755	-5.332227E-1	1.573716E-2	1.391770E-2	-1.014396E+1	2.987847E-2	2.709402E-2	6.951371E-2	3.419094E-2
10/19/2017  17:38:54.220755	7.685671E-2	1.573716E-2	1.900811E-2	-1.013632E+1	1.967868E-2	2.963800E-2	7.459952E-2	2.401527E-2
10/19/2017  17:38:54.221755	1.912466E-1	1.064948E-2	1.900811E-2	-1.013632E+1	1.202884E-2	2.455003E-2	7.968532E-2	2.401527E-2
10/19/2017  17:38:54.222755	-3.832449E-1	1.319332E-2	2.155331E-2	-1.014651E+1	2.222863E-2	1.183011E-2	7.968532E-2	3.673486E-2
10/19/2017  17:38:54.223755	-6.450706E-1	1.064948E-2	2.409852E-2	-1.013123E+1	2.477858E-2	1.946206E-2	7.459952E-2	3.164702E-2
10/19/2017  17:38:54.224755	7.177272E-2	1.064948E-2	1.137250E-2	-1.013378E+1	2.732853E-2	2.709402E-2	6.188501E-2	2.910311E-2
10/19/2017  17:38:54.225755	1.561383E+0	8.105642E-3	8.827299E-3	-1.013378E+1	1.712873E-2	1.437409E-2	7.205661E-2	2.147136E-2
10/19/2017  17:38:54.226755	2.468877E+0	1.828100E-2	2.155331E-2	-1.013123E+1	2.222863E-2	2.200605E-2	6.188501E-2	3.164702E-2
10/19/2017  17:38:54.227755	2.540052E+0	1.319332E-2	3.173413E-2	-1.012869E+1	1.712873E-2	2.963800E-2	7.968532E-2	3.673486E-2
10/19/2017  17:38:54.228755	-1.298364E+0	5.561801E-3	2.409852E-2	-1.012869E+1	1.712873E-2	1.691808E-2	6.951371E-2	3.419094E-2
10/19/2017  17:38:54.229755	-9.424844E-1	8.105642E-3	1.900811E-2	-1.013887E+1	2.477858E-2	6.742135E-3	7.459952E-2	3.164702E-2
10/19/2017  17:38:54.230755	-2.017749E+0	1.828100E-2	1.391770E-2	-1.014142E+1	3.242842E-2	2.455003E-2	6.697081E-2	2.910311E-2
10/19/2017  17:38:54.231755	-1.583068E+0	1.064948E-2	1.900811E-2	-1.013378E+1	2.477858E-2	2.963800E-2	7.205661E-2	2.910311E-2
10/19/2017  17:38:54.232755	4.429044E-1	5.561801E-3	1.391770E-2	-1.013123E+1	2.222863E-2	2.200605E-2	7.714242E-2	2.655919E-2
10/19/2017  17:38:54.233755	9.309679E-1	1.064948E-2	1.646291E-2	-1.014396E+1	1.967868E-2	1.946206E-2	7.968532E-2	2.910311E-2
10/19/2017  17:38:54.234755	6.923072E-2	-4.613560E-3	1.646291E-2	-1.014142E+1	1.457878E-2	2.200605E-2	7.205661E-2	3.673486E-2
10/19/2017  17:38:54.235755	1.327807E-1	1.064948E-2	1.646291E-2	-1.013887E+1	2.732853E-2	2.455003E-2	6.697081E-2	3.164702E-2
10/19/2017  17:38:54.236755	-1.465521E-2	2.082484E-2	1.646291E-2	-1.013887E+1	3.497837E-2	2.455003E-2	7.714242E-2	2.401527E-2
10/19/2017  17:38:54.237755	-5.278517E-2	1.064948E-2	2.409852E-2	-1.014142E+1	1.712873E-2	1.691808E-2	8.222822E-2	3.164702E-2
10/19/2017  17:38:54.238755	2.268346E-1	5.561801E-3	1.900811E-2	-1.013123E+1	2.987847E-2	1.691808E-2	6.951371E-2	4.182269E-2
10/19/2017  17:38:54.239755	6.564322E-1	1.319332E-2	1.137250E-2	-1.012869E+1	2.477858E-2	2.455003E-2	6.951371E-2	2.910311E-2
10/19/2017  17:38:54.240755	8.369140E-1	1.828100E-2	1.646291E-2	-1.014142E+1	1.967868E-2	2.455003E-2	7.459952E-2	2.147136E-2
10/19/2017  17:38:54.241755	7.047301E-1	1.319332E-2	2.155331E-2	-1.015415E+1	1.967868E-2	1.691808E-2	7.714242E-2	3.164702E-2
10/19/2017  17:38:54.242755	-1.692374E+0	8.105642E-3	1.900811E-2	-1.013632E+1	2.477858E-2	2.200605E-2	7.459952E-2	2.147136E-2
								
10/19/2017  17:38:54.243755	-1.280570E+0	1.064948E-2	1.137250E-2	-1.012105E+1	2.477858E-2	9.286120E-3	7.714242E-2	3.673486E-2
10/19/2017  17:38:54.244755	3.768124E-1	1.828100E-2	1.900811E-2	-1.013887E+1	2.987847E-2	2.200605E-2	6.951371E-2	2.910311E-2
10/19/2017  17:38:54.245755	6.923072E-2	1.319332E-2	1.900811E-2	-1.013378E+1	2.222863E-2	2.455003E-2	6.697081E-2	2.401527E-2
10/19/2017  17:38:54.246755	1.134328E+0	1.319332E-2	1.391770E-2	-1.014142E+1	1.457878E-2	2.200605E-2	7.459952E-2	3.164702E-2
10/19/2017  17:38:54.247755	4.759504E-1	1.573716E-2	1.646291E-2	-1.013632E+1	1.712873E-2	2.455003E-2	7.205661E-2	2.910311E-2
10/19/2017  17:38:54.248755	3.869804E-1	1.064948E-2	2.918892E-2	-1.013123E+1	2.987847E-2	1.437409E-2	7.205661E-2	2.910311E-2
10/19/2017  17:38:54.249755	9.210870E-2	5.561801E-3	1.391770E-2	-1.013887E+1	2.477858E-2	2.200605E-2	6.697081E-2	3.164702E-2
10/19/2017  17:38:54.250755	-6.196507E-1	1.828100E-2	8.827299E-3	-1.014651E+1	1.457878E-2	2.455003E-2	7.205661E-2	2.147136E-2
10/19/2017  17:38:54.251755	-6.704906E-1	2.082484E-2	1.646291E-2	-1.013123E+1	1.967868E-2	2.200605E-2	7.459952E-2	2.910311E-2
10/19/2017  17:38:54.252755	-3.451149E-1	1.064948E-2	2.409852E-2	-1.013123E+1	2.477858E-2	3.472597E-2	7.459952E-2	3.673486E-2
10/19/2017  17:38:54.253755	4.635274E-2	1.064948E-2	1.900811E-2	-1.012359E+1	1.967868E-2	2.200605E-2	7.205661E-2	3.164702E-2
10/19/2017  17:38:54.254755	-5.891467E-1	1.319332E-2	1.137250E-2	-1.013123E+1	2.732853E-2	1.691808E-2	6.697081E-2	2.401527E-2
10/19/2017  17:38:54.255755	-2.841070E-1	3.354405E-2	1.391770E-2	-1.014651E+1	3.497837E-2	2.709402E-2	6.697081E-2	2.147136E-2
10/19/2017  17:38:54.256755	9.462199E-1	2.082484E-2	2.155331E-2	-1.013887E+1	2.222863E-2	2.709402E-2	8.222822E-2	2.655919E-2
10/19/2017  17:38:54.257755	1.647811E+0	1.064948E-2	2.155331E-2	-1.013123E+1	6.928941E-3	2.200605E-2	7.968532E-2	2.147136E-2
10/19/2017  17:38:54.258755	1.154664E+0	1.064948E-2	1.137250E-2	-1.014142E+1	2.477858E-2	1.437409E-2	7.459952E-2	3.673486E-2
10/19/2017  17:38:54.259755	-4.086648E-1	1.319332E-2	1.900811E-2	-1.013378E+1	1.202884E-2	1.946206E-2	6.951371E-2	3.673486E-2
10/19/2017  17:38:54.260755	-2.942750E-1	1.319332E-2	1.646291E-2	-1.012614E+1	2.732853E-2	2.200605E-2	7.205661E-2	3.164702E-2
10/19/2017  17:38:54.261755	5.903402E-1	1.828100E-2	1.646291E-2	-1.014651E+1	2.222863E-2	2.963800E-2	7.205661E-2	2.401527E-2
10/19/2017  17:38:54.262755	-2.739390E-1	2.082484E-2	1.900811E-2	-1.014651E+1	1.457878E-2	2.963800E-2	8.477112E-2	2.401527E-2
10/19/2017  17:38:54.263755	1.098740E+0	1.573716E-2	2.664372E-2	-1.013632E+1	1.457878E-2	2.455003E-2	8.222822E-2	3.927877E-2
10/19/2017  17:38:54.264755	1.518169E+0	5.561801E-3	2.664372E-2	-1.011596E+1	1.457878E-2	2.455003E-2	7.205661E-2	3.673486E-2
10/19/2017  17:38:54.265755	7.939871E-2	1.064948E-2	8.827299E-3	-1.012359E+1	2.987847E-2	1.183011E-2	6.951371E-2	3.673486E-2
10/19/2017  17:38:54.266755	-1.229730E+0	1.064948E-2	1.137250E-2	-1.015669E+1	2.987847E-2	1.946206E-2	6.188501E-2	2.910311E-2
10/19/2017  17:38:54.267755	-5.535587E-1	1.573716E-2	1.900811E-2	-1.014905E+1	1.712873E-2	2.963800E-2	7.459952E-2	2.147136E-2
10/19/2017  17:38:54.268755	-5.306807E-1	2.082484E-2	2.155331E-2	-1.014142E+1	1.457878E-2	2.963800E-2	9.239983E-2	2.655919E-2
10/19/2017  17:38:54.269755	8.194071E-2	4.741205E-4	3.427933E-2	-1.013123E+1	1.967868E-2	1.437409E-2	8.222822E-2	3.419094E-2
10/19/2017  17:38:54.270755	1.276967E-1	5.561801E-3	1.391770E-2	-1.013378E+1	1.967868E-2	1.437409E-2	6.188501E-2	3.927877E-2
10/19/2017  17:38:54.271755	9.106320E-1	1.064948E-2	2.664372E-2	-1.013887E+1	2.477858E-2	2.709402E-2	6.951371E-2	3.164702E-2
10/19/2017  17:38:54.272755	1.454906E-1	2.082484E-2	1.900811E-2	-1.013887E+1	1.712873E-2	1.691808E-2	7.714242E-2	2.147136E-2
10/19/2017  17:38:54.273755	-5.586427E-1	1.064948E-2	1.900811E-2	-1.014651E+1	9.478889E-3	2.709402E-2	8.222822E-2	2.655919E-2
10/19/2017  17:38:54.274755	-1.262776E+0	4.741205E-4	2.409852E-2	-1.013632E+1	9.478889E-3	1.946206E-2	7.714242E-2	3.673486E-2
10/19/2017  17:38:54.275755	1.785366E-1	8.105642E-3	1.900811E-2	-1.012869E+1	2.732853E-2	1.437409E-2	7.714242E-2	3.419094E-2
								
10/19/2017  17:38:54.276755	-6.501546E-1	3.100021E-2	1.137250E-2	-1.012614E+1	3.242842E-2	2.200605E-2	6.951371E-2	2.910311E-2
10/19/2017  17:38:54.277755	-5.205127E-1	2.082484E-2	1.646291E-2	-1.013887E+1	1.712873E-2	2.709402E-2	7.205661E-2	2.655919E-2
10/19/2017  17:38:54.278755	9.106320E-1	1.573716E-2	2.409852E-2	-1.013632E+1	1.202884E-2	2.963800E-2	7.968532E-2	3.164702E-2
10/19/2017  17:38:54.279755	1.116534E+0	1.319332E-2	2.409852E-2	-1.013378E+1	1.457878E-2	2.455003E-2	7.459952E-2	3.164702E-2
10/19/2017  17:38:54.280755	1.022480E+0	8.105642E-3	1.646291E-2	-1.012614E+1	3.242842E-2	1.183011E-2	7.968532E-2	2.401527E-2
10/19/2017  17:38:54.281755	-1.824271E-1	1.319332E-2	1.137250E-2	-1.014651E+1	2.222863E-2	1.946206E-2	6.442791E-2	2.910311E-2
10/19/2017  17:38:54.282755	-1.010831E-1	2.082484E-2	1.137250E-2	-1.014396E+1	2.477858E-2	2.963800E-2	7.205661E-2	2.147136E-2
10/19/2017  17:38:54.283755	-1.646331E-1	2.082484E-2	2.918892E-2	-1.015160E+1	1.457878E-2	2.709402E-2	8.477112E-2	2.401527E-2
10/19/2017  17:38:54.284755	-9.571210E-3	1.064948E-2	2.918892E-2	-1.013632E+1	1.457878E-2	1.691808E-2	8.222822E-2	3.673486E-2
10/19/2017  17:38:54.285755	5.395003E-1	5.561801E-3	3.173413E-2	-1.011341E+1	1.712873E-2	1.691808E-2	7.459952E-2	3.164702E-2
10/19/2017  17:38:54.286755	2.954685E-1	5.561801E-3	1.900811E-2	-1.014142E+1	2.222863E-2	1.946206E-2	7.459952E-2	2.147136E-2
10/19/2017  17:38:54.287755	-3.451149E-1	1.573716E-2	1.900811E-2	-1.014651E+1	1.967868E-2	1.437409E-2	7.205661E-2	3.164702E-2
10/19/2017  17:38:54.288755	1.457161E+0	2.336868E-2	1.900811E-2	-1.014651E+1	2.222863E-2	2.963800E-2	7.205661E-2	2.910311E-2
10/19/2017  17:38:54.289755	1.007228E+0	1.064948E-2	2.155331E-2	-1.013887E+1	1.457878E-2	2.709402E-2	7.205661E-2	2.655919E-2
10/19/2017  17:38:54.290755	-1.623740E+0	-4.613560E-3	1.137250E-2	-1.013378E+1	1.457878E-2	1.691808E-2	8.222822E-2	3.419094E-2
10/19/2017  17:38:54.291755	-1.557648E+0	8.105642E-3	2.155331E-2	-1.013887E+1	2.987847E-2	1.183011E-2	7.968532E-2	3.927877E-2
10/19/2017  17:38:54.292755	-9.246904E-1	2.591253E-2	2.155331E-2	-1.013887E+1	3.242842E-2	2.455003E-2	6.951371E-2	2.147136E-2
10/19/2017  17:38:54.293755	1.139412E+0	2.082484E-2	1.900811E-2	-1.013378E+1	1.967868E-2	1.946206E-2	7.714242E-2	2.147136E-2
10/19/2017  17:38:54.294755	1.101282E+0	1.319332E-2	1.646291E-2	-1.014651E+1	2.222863E-2	2.963800E-2	7.459952E-2	2.910311E-2
10/19/2017  17:38:54.295755	-2.993589E-1	1.319332E-2	2.664372E-2	-1.013887E+1	1.967868E-2	1.946206E-2	8.222822E-2	3.164702E-2
10/19/2017  17:38:54.296755	-1.077210E+0	1.064948E-2	1.900811E-2	-1.012869E+1	2.222863E-2	2.455003E-2	7.205661E-2	4.182269E-2
10/19/2017  17:38:54.297755	-1.199226E+0	2.591253E-2	1.137250E-2	-1.013378E+1	1.967868E-2	1.437409E-2	6.697081E-2	2.910311E-2
10/19/2017  17:38:54.298755	-5.586427E-1	1.573716E-2	1.137250E-2	-1.014142E+1	2.477858E-2	1.946206E-2	6.951371E-2	3.164702E-2
10/19/2017  17:38:54.299755	-1.137931E-1	1.064948E-2	1.900811E-2	-1.015669E+1	1.712873E-2	2.709402E-2	6.951371E-2	2.401527E-2
10/19/2017  17:38:54.300755	8.470820E-1	1.064948E-2	1.646291E-2	-1.013378E+1	2.222863E-2	1.946206E-2	7.459952E-2	3.164702E-2
10/19/2017  17:38:54.301755	2.522546E-1	1.319332E-2	1.900811E-2	-1.013378E+1	2.477858E-2	2.200605E-2	7.459952E-2	3.927877E-2
10/19/2017  17:38:54.302755	7.886161E-1	1.319332E-2	1.900811E-2	-1.013887E+1	1.967868E-2	1.946206E-2	7.205661E-2	2.910311E-2
10/19/2017  17:38:54.303755	-4.569628E-1	1.319332E-2	1.391770E-2	-1.013123E+1	1.457878E-2	1.946206E-2	7.714242E-2	2.655919E-2
10/19/2017  17:38:54.304755	-1.435632E+0	1.319332E-2	2.155331E-2	-1.013378E+1	2.222863E-2	2.709402E-2	7.205661E-2	2.147136E-2
10/19/2017  17:38:54.305755	-8.255525E-1	2.082484E-2	1.900811E-2	-1.013887E+1	2.477858E-2	1.946206E-2	8.222822E-2	2.147136E-2
10/19/2017  17:38:54.306755	1.779995E+0	1.064948E-2	1.137250E-2	-1.013887E+1	2.222863E-2	2.200605E-2	7.714242E-2	2.655919E-2
10/19/2017  17:38:54.307755	1.261428E+0	3.017961E-3	1.900811E-2	-1.012614E+1	1.967868E-2	1.691808E-2	7.714242E-2	2.910311E-2
10/19/2017  17:38:54.308755	5.191643E-1	1.319332E-2	1.391770E-2	-1.011596E+1	2.987847E-2	2.455003E-2	7.459952E-2	2.910311E-2
								
10/19/2017  17:38:54.309755	1.007228E+0	2.082484E-2	1.900811E-2	-1.013887E+1	3.242842E-2	2.200605E-2	6.697081E-2	2.147136E-2
10/19/2017  17:38:54.310755	1.548673E+0	1.828100E-2	1.900811E-2	-1.013378E+1	1.457878E-2	2.709402E-2	7.205661E-2	2.655919E-2
10/19/2017  17:38:54.311755	1.111450E+0	5.561801E-3	1.900811E-2	-1.013123E+1	1.202884E-2	1.946206E-2	8.222822E-2	3.164702E-2
10/19/2017  17:38:54.312755	-2.230990E-1	1.828100E-2	1.900811E-2	-1.013632E+1	2.222863E-2	2.455003E-2	7.968532E-2	3.164702E-2
10/19/2017  17:38:54.313755	-2.358090E-1	8.105642E-3	2.155331E-2	-1.013632E+1	2.477858E-2	1.946206E-2	7.459952E-2	3.164702E-2
10/19/2017  17:38:54.314755	1.200707E-1	8.105642E-3	1.137250E-2	-1.013887E+1	2.477858E-2	1.946206E-2	5.679920E-2	2.401527E-2
10/19/2017  17:38:54.315755	5.369583E-1	1.064948E-2	1.646291E-2	-1.013632E+1	1.457878E-2	9.286120E-3	6.951371E-2	2.147136E-2
10/19/2017  17:38:54.316755	-5.510167E-1	2.082484E-2	1.646291E-2	-1.014651E+1	2.477858E-2	2.963800E-2	7.205661E-2	2.655919E-2
10/19/2017  17:38:54.317755	4.784923E-1	1.064948E-2	2.918892E-2	-1.013632E+1	1.712873E-2	3.472597E-2	8.222822E-2	3.164702E-2
10/19/2017  17:38:54.318755	1.197878E+0	5.561801E-3	1.900811E-2	-1.012614E+1	1.967868E-2	1.691808E-2	7.459952E-2	3.419094E-2
10/19/2017  17:38:54.319755	-1.925950E-1	1.573716E-2	1.391770E-2	-1.013123E+1	2.477858E-2	1.437409E-2	7.459952E-2	1.892744E-2
10/19/2017  17:38:54.320755	-1.339036E+0	5.561801E-3	1.391770E-2	-1.014651E+1	2.732853E-2	2.200605E-2	6.697081E-2	2.655919E-2
10/19/2017  17:38:54.321755	-2.249071E+0	1.828100E-2	2.155331E-2	-1.014651E+1	1.457878E-2	2.455003E-2	7.459952E-2	2.401527E-2
10/19/2017  17:38:54.322755	-1.387334E+0	5.561801E-3	2.155331E-2	-1.013123E+1	4.378993E-3	2.455003E-2	8.222822E-2	2.147136E-2
10/19/2017  17:38:54.323755	1.134328E+0	8.105642E-3	1.646291E-2	-1.013123E+1	2.477858E-2	1.437409E-2	7.714242E-2	3.927877E-2
10/19/2017  17:38:54.324755	1.813041E+0	1.319332E-2	1.391770E-2	-1.013632E+1	3.752832E-2	1.946206E-2	6.951371E-2	3.927877E-2
10/19/2017  17:38:54.325755	8.343720E-1	1.828100E-2	2.409852E-2	-1.013378E+1	2.222863E-2	2.709402E-2	7.459952E-2	2.401527E-2
10/19/2017  17:38:54.326755	-6.399866E-1	1.064948E-2	2.155331E-2	-1.013632E+1	1.712873E-2	1.946206E-2	7.968532E-2	2.655919E-2
10/19/2017  17:38:54.327755	-1.285654E+0	8.105642E-3	8.827299E-3	-1.014651E+1	2.222863E-2	1.183011E-2	7.205661E-2	3.419094E-2
10/19/2017  17:38:54.328755	-3.451149E-1	1.573716E-2	1.391770E-2	-1.013632E+1	2.987847E-2	1.946206E-2	6.697081E-2	3.164702E-2
10/19/2017  17:38:54.329755	1.269054E+0	1.319332E-2	1.900811E-2	-1.012359E+1	2.222863E-2	3.472597E-2	7.205661E-2	2.147136E-2
10/19/2017  17:38:54.330755	5.906273E-2	1.064948E-2	1.391770E-2	-1.013378E+1	1.712873E-2	1.946206E-2	8.222822E-2	1.892744E-2
10/19/2017  17:38:54.331755	7.174401E-1	5.561801E-3	2.409852E-2	-1.014651E+1	1.202884E-2	9.286120E-3	7.205661E-2	3.927877E-2
10/19/2017  17:38:54.332755	-9.599913E-2	-4.613560E-3	1.900811E-2	-1.013123E+1	1.457878E-2	2.200605E-2	7.205661E-2	2.910311E-2
10/19/2017  17:38:54.333755	-9.170644E-1	1.573716E-2	1.900811E-2	-1.013887E+1	1.967868E-2	2.455003E-2	8.222822E-2	2.655919E-2
10/19/2017  17:38:54.334755	1.149867E-1	1.828100E-2	2.409852E-2	-1.014142E+1	2.477858E-2	2.709402E-2	7.205661E-2	2.655919E-2
10/19/2017  17:38:54.335755	2.934062E+0	1.064948E-2	2.664372E-2	-1.013378E+1	1.202884E-2	1.946206E-2	7.968532E-2	3.164702E-2
10/19/2017  17:38:54.336755	1.752033E+0	8.105642E-3	1.391770E-2	-1.012869E+1	1.967868E-2	2.455003E-2	7.205661E-2	3.927877E-2
10/19/2017  17:38:54.337755	-1.107714E+0	1.064948E-2	1.137250E-2	-1.013378E+1	2.732853E-2	2.200605E-2	6.951371E-2	2.655919E-2
10/19/2017  17:38:54.338755	-1.455968E+0	1.828100E-2	1.137250E-2	-1.014142E+1	3.242842E-2	1.946206E-2	6.951371E-2	1.892744E-2
10/19/2017  17:38:54.339755	-8.763924E-1	8.105642E-3	2.155331E-2	-1.014142E+1	1.712873E-2	2.709402E-2	7.205661E-2	2.147136E-2
10/19/2017  17:38:54.340755	-8.636824E-1	8.105642E-3	2.155331E-2	-1.013123E+1	1.457878E-2	2.963800E-2	7.968532E-2	2.401527E-2
10/19/2017  17:38:54.341755	-7.238726E-1	2.336868E-2	1.900811E-2	-1.012105E+1	3.242842E-2	1.437409E-2	7.968532E-2	3.673486E-2
								
10/19/2017  17:38:54.342755	-1.239611E-1	2.082484E-2	1.646291E-2	-1.014142E+1	2.477858E-2	1.946206E-2	7.459952E-2	3.927877E-2
10/19/2017  17:38:54.343755	5.089963E-1	3.017961E-3	2.409852E-2	-1.014142E+1	4.378993E-3	2.200605E-2	7.459952E-2	2.655919E-2
10/19/2017  17:38:54.344755	2.064986E-1	1.319332E-2	1.391770E-2	-1.013378E+1	1.967868E-2	2.455003E-2	7.205661E-2	2.910311E-2
10/19/2017  17:38:54.345755	-8.837314E-2	1.319332E-2	1.391770E-2	-1.012869E+1	2.477858E-2	1.946206E-2	7.714242E-2	3.673486E-2
10/19/2017  17:38:54.346755	4.454464E-1	1.573716E-2	2.155331E-2	-1.014142E+1	1.967868E-2	1.946206E-2	7.205661E-2	3.164702E-2
10/19/2017  17:38:54.347755	-7.312115E-2	1.064948E-2	2.664372E-2	-1.013378E+1	4.378993E-3	2.200605E-2	7.714242E-2	4.182269E-2
10/19/2017  17:38:54.348755	-6.603226E-1	8.105642E-3	1.137250E-2	-1.013123E+1	2.222863E-2	1.183011E-2	7.714242E-2	3.419094E-2
10/19/2017  17:38:54.349755	-5.535587E-1	1.573716E-2	1.900811E-2	-1.013887E+1	2.987847E-2	1.946206E-2	7.205661E-2	1.892744E-2
10/19/2017  17:38:54.350755	-1.951370E-1	1.573716E-2	1.900811E-2	-1.011850E+1	2.732853E-2	2.455003E-2	7.205661E-2	2.401527E-2
10/19/2017  17:38:54.351755	-2.154730E-1	1.828100E-2	1.391770E-2	-1.013378E+1	1.967868E-2	1.946206E-2	7.459952E-2	1.383961E-2
10/19/2017  17:38:54.352755	-5.662687E-1	1.319332E-2	2.155331E-2	-1.015415E+1	1.457878E-2	9.286120E-3	7.968532E-2	3.164702E-2
10/19/2017  17:38:54.353755	-3.069849E-1	1.319332E-2	2.409852E-2	-1.013378E+1	2.477858E-2	1.691808E-2	7.459952E-2	3.927877E-2
10/19/2017  17:38:54.354755	1.340230E+0	5.561801E-3	1.137250E-2	-1.013632E+1	2.987847E-2	1.437409E-2	5.934210E-2	3.164702E-2
10/19/2017  17:38:54.355755	1.070778E+0	1.064948E-2	-1.353514E-3	-1.014142E+1	2.222863E-2	1.691808E-2	6.951371E-2	2.147136E-2
10/19/2017  17:38:54.356755	9.385939E-1	2.336868E-2	1.900811E-2	-1.014142E+1	1.967868E-2	2.709402E-2	7.968532E-2	2.655919E-2
10/19/2017  17:38:54.357755	1.307184E+0	1.573716E-2	3.682453E-2	-1.013887E+1	2.222863E-2	2.963800E-2	8.222822E-2	3.164702E-2
10/19/2017  17:38:54.358755	-1.163351E-1	4.741205E-4	2.409852E-2	-1.013123E+1	1.712873E-2	1.437409E-2	8.222822E-2	3.673486E-2
10/19/2017  17:38:54.359755	9.182580E-1	8.105642E-3	1.900811E-2	-1.013887E+1	2.477858E-2	9.286120E-3	6.951371E-2	3.673486E-2
10/19/2017  17:38:54.360755	1.896927E+0	4.741205E-4	1.646291E-2	-1.013887E+1	2.732853E-2	2.455003E-2	6.697081E-2	3.419094E-2
10/19/2017  17:38:54.361755	5.293323E-1	1.573716E-2	1.646291E-2	-1.014142E+1	2.222863E-2	3.726996E-2	7.205661E-2	2.910311E-2
10/19/2017  17:38:54.362755	-1.010831E-1	1.064948E-2	2.409852E-2	-1.012869E+1	1.457878E-2	1.946206E-2	8.222822E-2	2.910311E-2
10/19/2017  17:38:54.363755	-5.611847E-1	1.064948E-2	1.646291E-2	-1.013632E+1	1.967868E-2	-8.898203E-4	7.459952E-2	2.655919E-2
10/19/2017  17:38:54.364755	-9.348584E-1	2.082484E-2	1.137250E-2	-1.015415E+1	3.497837E-2	2.709402E-2	6.697081E-2	3.164702E-2
10/19/2017  17:38:54.365755	-1.326326E+0	1.828100E-2	1.137250E-2	-1.014142E+1	2.732853E-2	2.709402E-2	7.205661E-2	2.655919E-2
10/19/2017  17:38:54.366755	-9.984083E-1	2.082484E-2	2.155331E-2	-1.013887E+1	4.378993E-3	2.455003E-2	8.222822E-2	2.655919E-2
10/19/2017  17:38:54.367755	-3.552829E-1	1.064948E-2	2.155331E-2	-1.013887E+1	1.457878E-2	1.946206E-2	8.222822E-2	3.927877E-2
10/19/2017  17:38:54.368755	5.143673E-2	1.064948E-2	1.900811E-2	-1.013123E+1	1.457878E-2	1.691808E-2	7.205661E-2	3.419094E-2
10/19/2017  17:38:54.369755	-1.973920E-2	8.105642E-3	1.391770E-2	-1.013887E+1	3.242842E-2	1.437409E-2	7.205661E-2	3.164702E-2
10/19/2017  17:38:54.370755	4.759504E-1	1.828100E-2	1.137250E-2	-1.014651E+1	2.987847E-2	2.709402E-2	6.697081E-2	1.638352E-2
10/19/2017  17:38:54.371755	4.683244E-1	1.828100E-2	1.391770E-2	-1.015160E+1	2.222863E-2	1.946206E-2	6.951371E-2	3.164702E-2
10/19/2017  17:38:54.372755	3.691864E-1	5.561801E-3	2.664372E-2	-1.014142E+1	1.457878E-2	2.200605E-2	8.222822E-2	2.910311E-2
10/19/2017  17:38:54.373755	5.397873E-2	8.105642E-3	1.900811E-2	-1.010577E+1	1.967868E-2	1.437409E-2	8.222822E-2	3.673486E-2
10/19/2017  17:38:54.374755	-2.358090E-1	1.573716E-2	6.282096E-3	-1.013887E+1	2.987847E-2	1.946206E-2	6.697081E-2	3.164702E-2
								
10/19/2017  17:38:54.375755	-7.820515E-2	1.828100E-2	1.137250E-2	-1.013887E+1	2.222863E-2	2.963800E-2	6.188501E-2	2.655919E-2
10/19/2017  17:38:54.376755	-1.798851E-1	1.064948E-2	8.827299E-3	-1.013632E+1	1.457878E-2	2.455003E-2	7.459952E-2	3.419094E-2
10/19/2017  17:38:54.377755	2.954685E-1	1.319332E-2	1.900811E-2	-1.013632E+1	1.967868E-2	2.455003E-2	8.731403E-2	3.164702E-2
10/19/2017  17:38:54.378755	-2.434350E-1	1.573716E-2	2.918892E-2	-1.012869E+1	2.732853E-2	2.200605E-2	7.205661E-2	2.910311E-2
10/19/2017  17:38:54.379755	-4.515918E-2	1.064948E-2	1.391770E-2	-1.013887E+1	2.987847E-2	2.455003E-2	7.968532E-2	3.164702E-2
10/19/2017  17:38:54.380755	3.768124E-1	2.082484E-2	2.155331E-2	-1.013887E+1	1.457878E-2	3.472597E-2	7.459952E-2	2.147136E-2
10/19/2017  17:38:54.381755	4.962863E-1	2.082484E-2	2.409852E-2	-1.014651E+1	2.477858E-2	2.200605E-2	7.459952E-2	2.655919E-2
10/19/2017  17:38:54.382755	-7.238726E-1	8.105642E-3	2.664372E-2	-1.013378E+1	1.457878E-2	9.286120E-3	8.222822E-2	3.419094E-2
10/19/2017  17:38:54.383755	1.093656E+0	5.561801E-3	1.646291E-2	-1.012614E+1	1.457878E-2	1.437409E-2	7.459952E-2	3.164702E-2
10/19/2017  17:38:54.384755	3.760211E+0	1.064948E-2	1.137250E-2	-1.013632E+1	3.242842E-2	1.183011E-2	6.951371E-2	2.910311E-2
10/19/2017  17:38:54.385755	9.385939E-1	1.573716E-2	1.646291E-2	-1.014905E+1	2.222863E-2	2.709402E-2	7.714242E-2	2.910311E-2
10/19/2017  17:38:54.386755	-1.013660E+0	1.319332E-2	2.409852E-2	-1.013378E+1	1.457878E-2	1.946206E-2	8.222822E-2	3.419094E-2
10/19/2017  17:38:54.387755	-1.316158E+0	1.064948E-2	1.391770E-2	-1.014142E+1	1.457878E-2	1.946206E-2	7.205661E-2	3.673486E-2
10/19/2017  17:38:54.388755	-3.476569E-1	1.064948E-2	1.391770E-2	-1.013887E+1	2.222863E-2	1.946206E-2	7.205661E-2	3.164702E-2
10/19/2017  17:38:54.389755	1.327520E+0	1.064948E-2	1.900811E-2	-1.013378E+1	3.497837E-2	2.200605E-2	7.968532E-2	2.655919E-2
10/19/2017  17:38:54.390755	8.194071E-2	1.319332E-2	1.646291E-2	-1.013887E+1	2.222863E-2	1.946206E-2	7.459952E-2	2.910311E-2
10/19/2017  17:38:54.391755	-5.713527E-1	1.319332E-2	1.646291E-2	-1.013887E+1	6.928941E-3	1.946206E-2	6.951371E-2	2.401527E-2
10/19/2017  17:38:54.392755	-6.628646E-1	8.105642E-3	8.827299E-3	-1.013632E+1	2.732853E-2	6.742135E-3	6.951371E-2	3.927877E-2
10/19/2017  17:38:54.393755	-2.482320E-2	1.573716E-2	1.391770E-2	-1.013887E+1	2.987847E-2	1.946206E-2	6.951371E-2	2.910311E-2
10/19/2017  17:38:54.394755	-1.875110E-1	2.082484E-2	1.900811E-2	-1.012869E+1	1.967868E-2	2.963800E-2	7.968532E-2	2.401527E-2
10/19/2017  17:38:54.395755	-4.290008E-1	1.319332E-2	1.391770E-2	-1.014142E+1	1.202884E-2	1.946206E-2	8.222822E-2	2.655919E-2
10/19/2017  17:38:54.396755	-1.570358E+0	1.319332E-2	1.900811E-2	-1.014905E+1	1.967868E-2	1.946206E-2	7.714242E-2	3.927877E-2
10/19/2017  17:38:54.397755	-1.466136E+0	1.828100E-2	1.900811E-2	-1.012359E+1	1.967868E-2	1.946206E-2	7.459952E-2	3.419094E-2
10/19/2017  17:38:54.398755	4.126874E-2	1.573716E-2	1.137250E-2	-1.013378E+1	1.712873E-2	2.455003E-2	6.951371E-2	3.164702E-2
10/19/2017  17:38:54.399755	1.668147E+0	2.082484E-2	1.900811E-2	-1.014651E+1	2.732853E-2	2.200605E-2	7.205661E-2	2.655919E-2
10/19/2017  17:38:54.400755	1.314810E+0	8.105642E-3	2.664372E-2	-1.013632E+1	9.478889E-3	1.946206E-2	6.951371E-2	3.164702E-2
10/19/2017  17:38:54.401755	2.446286E-1	1.064948E-2	1.391770E-2	-1.013632E+1	1.967868E-2	1.691808E-2	7.205661E-2	3.927877E-2
10/19/2017  17:38:54.402755	1.632846E-1	2.082484E-2	1.391770E-2	-1.013378E+1	2.732853E-2	1.946206E-2	6.951371E-2	2.910311E-2
10/19/2017  17:38:54.403755	-5.662687E-1	1.319332E-2	1.391770E-2	-1.013378E+1	1.457878E-2	3.218199E-2	7.205661E-2	1.892744E-2
10/19/2017  17:38:54.404755	-3.222369E-1	1.828100E-2	1.900811E-2	-1.014142E+1	1.712873E-2	1.946206E-2	7.205661E-2	3.164702E-2
10/19/2017  17:38:54.405755	-9.854113E-2	1.319332E-2	1.900811E-2	-1.013123E+1	2.222863E-2	2.963800E-2	7.205661E-2	2.401527E-2
10/19/2017  17:38:54.406755	-7.029213E-3	2.591253E-2	1.900811E-2	-1.013632E+1	2.477858E-2	1.946206E-2	7.714242E-2	2.655919E-2
10/19/2017  17:38:54.407755	1.709106E-1	1.064948E-2	1.391770E-2	-1.013632E+1	2.477858E-2	1.691808E-2	6.697081E-2	1.892744E-2
								
10/19/2017  17:38:54.408755	-2.942750E-1	8.105642E-3	1.900811E-2	-1.015415E+1	1.457878E-2	2.709402E-2	6.697081E-2	2.147136E-2
10/19/2017  17:38:54.409755	-4.518788E-1	2.082484E-2	2.155331E-2	-1.015415E+1	1.457878E-2	2.455003E-2	7.714242E-2	3.419094E-2
10/19/2017  17:38:54.410755	-7.057916E-2	1.319332E-2	1.646291E-2	-1.013123E+1	3.497837E-2	2.200605E-2	7.459952E-2	4.182269E-2
10/19/2017  17:38:54.411755	1.518169E+0	1.319332E-2	2.155331E-2	-1.013887E+1	1.967868E-2	1.437409E-2	7.459952E-2	3.419094E-2
10/19/2017  17:38:54.412755	1.645269E+0	1.064948E-2	2.155331E-2	-1.013378E+1	2.222863E-2	2.200605E-2	6.951371E-2	3.164702E-2
10/19/2017  17:38:54.413755	3.971484E-1	1.064948E-2	1.137250E-2	-1.013378E+1	1.967868E-2	2.200605E-2	7.714242E-2	2.910311E-2
10/19/2017  17:38:54.414755	-1.776260E+0	1.828100E-2	2.155331E-2	-1.013378E+1	1.967868E-2	2.200605E-2	7.459952E-2	4.436661E-2
10/19/2017  17:38:54.415755	9.210870E-2	5.561801E-3	8.827299E-3	-1.013123E+1	1.967868E-2	1.946206E-2	6.697081E-2	3.673486E-2
10/19/2017  17:38:54.416755	1.922347E+0	1.828100E-2	6.282096E-3	-1.013887E+1	2.477858E-2	2.709402E-2	6.697081E-2	1.638352E-2
10/19/2017  17:38:54.417755	2.448541E+0	2.082484E-2	1.900811E-2	-1.011341E+1	2.222863E-2	2.455003E-2	7.714242E-2	3.164702E-2
10/19/2017  17:38:54.418755	-5.459327E-1	1.828100E-2	3.173413E-2	-1.013632E+1	1.712873E-2	1.946206E-2	7.968532E-2	3.164702E-2
10/19/2017  17:38:54.419755	-7.594605E-1	5.561801E-3	1.646291E-2	-1.013378E+1	1.967868E-2	1.437409E-2	7.459952E-2	3.419094E-2
10/19/2017  17:38:54.420755	5.522103E-1	5.561801E-3	8.827299E-3	-1.014396E+1	2.477858E-2	1.691808E-2	6.697081E-2	2.910311E-2
10/19/2017  17:38:54.421755	2.522546E-1	2.082484E-2	1.900811E-2	-1.013887E+1	2.222863E-2	2.709402E-2	8.477112E-2	1.892744E-2
10/19/2017  17:38:54.422755	8.956670E-2	1.828100E-2	3.682453E-2	-1.013378E+1	1.457878E-2	1.946206E-2	7.968532E-2	3.164702E-2
10/19/2017  17:38:54.423755	-2.408930E-1	1.064948E-2	1.646291E-2	-1.013632E+1	1.967868E-2	1.946206E-2	6.188501E-2	3.419094E-2
10/19/2017  17:38:54.424755	3.539345E-1	8.105642E-3	1.137250E-2	-1.013378E+1	2.222863E-2	2.200605E-2	7.205661E-2	2.910311E-2
10/19/2017  17:38:54.425755	1.658266E-1	1.319332E-2	1.137250E-2	-1.013887E+1	2.987847E-2	2.200605E-2	6.951371E-2	2.401527E-2
10/19/2017  17:38:54.426755	-8.814764E-1	1.828100E-2	2.155331E-2	-1.014142E+1	2.477858E-2	3.726996E-2	7.459952E-2	3.164702E-2
10/19/2017  17:38:54.427755	-1.311074E+0	2.082484E-2	2.155331E-2	-1.013378E+1	1.457878E-2	2.709402E-2	7.205661E-2	2.910311E-2
10/19/2017  17:38:54.428755	-1.862688E+0	8.105642E-3	1.391770E-2	-1.013887E+1	2.477858E-2	9.286120E-3	7.714242E-2	2.910311E-2
10/19/2017  17:38:54.429755	-1.199226E+0	2.845637E-2	1.137250E-2	-1.014142E+1	3.242842E-2	2.963800E-2	6.697081E-2	3.419094E-2
10/19/2017  17:38:54.430755	3.183465E-1	1.828100E-2	2.155331E-2	-1.014396E+1	2.222863E-2	2.963800E-2	7.205661E-2	2.401527E-2
10/19/2017  17:38:54.431755	1.757117E+0	1.573716E-2	2.155331E-2	-1.013378E+1	4.378993E-3	1.946206E-2	7.968532E-2	2.655919E-2
10/19/2017  17:38:54.432755	8.292880E-1	3.017961E-3	1.391770E-2	-1.013123E+1	2.222863E-2	1.691808E-2	7.714242E-2	3.673486E-2
10/19/2017  17:38:54.433755	-1.539854E+0	1.828100E-2	1.391770E-2	-1.013887E+1	3.497837E-2	1.946206E-2	6.697081E-2	3.673486E-2
10/19/2017  17:38:54.434755	-1.036538E+0	1.828100E-2	1.137250E-2	-1.013887E+1	2.732853E-2	2.963800E-2	7.459952E-2	2.147136E-2
10/19/2017  17:38:54.435755	-4.264588E-1	2.082484E-2	1.900811E-2	-1.014651E+1	1.457878E-2	2.709402E-2	7.459952E-2	2.147136E-2
10/19/2017  17:38:54.436755	-6.295316E-2	1.319332E-2	1.646291E-2	-1.013887E+1	1.202884E-2	1.437409E-2	7.714242E-2	3.164702E-2
10/19/2017  17:38:54.437755	-8.077585E-1	1.573716E-2	2.155331E-2	-1.012869E+1	1.967868E-2	1.437409E-2	7.459952E-2	3.927877E-2
10/19/2017  17:38:54.438755	9.309679E-1	1.064948E-2	1.391770E-2	-1.012105E+1	2.222863E-2	2.455003E-2	6.951371E-2	2.910311E-2
10/19/2017  17:38:54.439755	2.827585E-1	2.845637E-2	1.137250E-2	-1.014651E+1	2.222863E-2	2.200605E-2	7.205661E-2	2.401527E-2
10/19/2017  17:38:54.440755	-5.484747E-1	1.064948E-2	2.409852E-2	-1.015160E+1	1.457878E-2	9.286120E-3	7.205661E-2	2.910311E-2
								
10/19/2017  17:38:54.441755	-2.228120E-2	-2.069720E-3	2.409852E-2	-1.013123E+1	1.967868E-2	1.691808E-2	7.205661E-2	3.164702E-2
10/19/2017  17:38:54.442755	1.279222E+0	1.828100E-2	8.827299E-3	-1.013632E+1	2.732853E-2	1.946206E-2	7.968532E-2	3.164702E-2
10/19/2017  17:38:54.443755	3.618475E-2	2.336868E-2	2.664372E-2	-1.014396E+1	2.477858E-2	2.709402E-2	7.459952E-2	2.655919E-2
10/19/2017  17:38:54.444755	-6.832006E-1	5.561801E-3	2.664372E-2	-1.013632E+1	1.202884E-2	1.946206E-2	8.222822E-2	3.164702E-2
10/19/2017  17:38:54.445755	-6.959106E-1	1.573716E-2	2.664372E-2	-1.013632E+1	1.967868E-2	1.183011E-2	7.205661E-2	3.419094E-2
10/19/2017  17:38:54.446755	-3.120689E-1	1.573716E-2	1.900811E-2	-1.013887E+1	2.732853E-2	2.200605E-2	6.951371E-2	2.655919E-2
10/19/2017  17:38:54.447755	2.192086E-1	1.828100E-2	1.646291E-2	-1.013887E+1	2.477858E-2	1.691808E-2	7.459952E-2	2.401527E-2
10/19/2017  17:38:54.448755	4.708664E-1	4.741205E-4	2.409852E-2	-1.013887E+1	1.457878E-2	2.455003E-2	7.968532E-2	3.164702E-2
10/19/2017  17:38:54.449755	3.208598E+0	8.105642E-3	1.900811E-2	-1.012614E+1	2.222863E-2	1.183011E-2	7.459952E-2	2.655919E-2
10/19/2017  17:38:54.450755	4.179641E+0	2.336868E-2	1.137250E-2	-1.012869E+1	3.497837E-2	1.691808E-2	7.205661E-2	3.419094E-2
10/19/2017  17:38:54.451755	4.022324E-1	1.573716E-2	1.900811E-2	-1.014142E+1	2.222863E-2	2.709402E-2	7.205661E-2	2.910311E-2
10/19/2017  17:38:54.452755	-4.112068E-1	1.064948E-2	2.664372E-2	-1.013378E+1	1.202884E-2	2.200605E-2	7.714242E-2	2.401527E-2
10/19/2017  17:38:54.453755	9.919759E-1	8.105642E-3	1.391770E-2	-1.013887E+1	1.712873E-2	1.437409E-2	7.459952E-2	3.673486E-2
10/19/2017  17:38:54.454755	2.331609E+0	1.573716E-2	1.391770E-2	-1.013887E+1	4.262821E-2	2.200605E-2	6.442791E-2	2.147136E-2
10/19/2017  17:38:54.455755	2.242926E-1	1.573716E-2	2.155331E-2	-1.013887E+1	1.202884E-2	2.963800E-2	7.968532E-2	2.401527E-2
10/19/2017  17:38:54.456755	-1.077210E+0	5.561801E-3	2.155331E-2	-1.013887E+1	1.712873E-2	1.437409E-2	8.731403E-2	3.673486E-2
10/19/2017  17:38:54.457755	-2.134681E+0	8.105642E-3	1.137250E-2	-1.014651E+1	2.477858E-2	9.286120E-3	6.951371E-2	3.673486E-2
10/19/2017  17:38:54.458755	-1.992329E+0	1.064948E-2	1.646291E-2	-1.014651E+1	2.987847E-2	2.455003E-2	6.697081E-2	3.164702E-2
10/19/2017  17:38:54.459755	1.083488E+0	2.082484E-2	2.155331E-2	-1.012869E+1	2.222863E-2	3.472597E-2	8.222822E-2	2.147136E-2
10/19/2017  17:38:54.460755	1.162290E+0	4.741205E-4	2.664372E-2	-1.012869E+1	1.457878E-2	1.437409E-2	8.222822E-2	2.401527E-2
10/19/2017  17:38:54.461755	-7.035366E-1	3.017961E-3	1.900811E-2	-1.012869E+1	2.222863E-2	9.286120E-3	7.205661E-2	3.673486E-2
10/19/2017  17:38:54.462755	-6.425286E-1	2.591253E-2	1.646291E-2	-1.013887E+1	2.477858E-2	2.455003E-2	6.951371E-2	2.655919E-2
10/19/2017  17:38:54.463755	9.589299E-1	1.828100E-2	2.155331E-2	-1.014142E+1	1.967868E-2	2.709402E-2	7.968532E-2	2.401527E-2
10/19/2017  17:38:54.464755	3.844384E-1	3.017961E-3	1.900811E-2	-1.013123E+1	2.222863E-2	1.691808E-2	8.222822E-2	3.164702E-2
10/19/2017  17:38:54.465755	-1.333952E+0	5.561801E-3	1.391770E-2	-1.013378E+1	2.222863E-2	1.691808E-2	7.714242E-2	3.673486E-2
10/19/2017  17:38:54.466755	-1.183974E+0	1.319332E-2	2.664372E-2	-1.013887E+1	2.477858E-2	2.709402E-2	7.205661E-2	3.164702E-2
10/19/2017  17:38:54.467755	-1.003492E+0	2.591253E-2	1.646291E-2	-1.013887E+1	2.477858E-2	2.963800E-2	7.459952E-2	2.147136E-2
10/19/2017  17:38:54.468755	-5.408487E-1	2.082484E-2	2.155331E-2	-1.014396E+1	1.967868E-2	4.744590E-2	8.222822E-2	2.655919E-2
10/19/2017  17:38:54.469755	1.175287E-1	4.741205E-4	2.409852E-2	-1.013378E+1	1.457878E-2	1.437409E-2	7.714242E-2	3.927877E-2
10/19/2017  17:38:54.470755	7.123561E-1	3.017961E-3	1.137250E-2	-1.012869E+1	2.987847E-2	9.286120E-3	7.205661E-2	3.164702E-2
10/19/2017  17:38:54.471755	8.623340E-1	2.591253E-2	1.137250E-2	-1.014651E+1	3.242842E-2	2.200605E-2	7.205661E-2	2.147136E-2
10/19/2017  17:38:54.472755	-4.061229E-1	2.082484E-2	2.409852E-2	-1.014396E+1	1.457878E-2	2.709402E-2	7.205661E-2	2.655919E-2
10/19/2017  17:38:54.473755	-9.450264E-1	-4.613560E-3	2.664372E-2	-1.013378E+1	2.477858E-2	1.946206E-2	7.968532E-2	2.910311E-2
								
10/19/2017  17:38:54.474755	-2.027630E-1	1.064948E-2	1.391770E-2	-1.013632E+1	1.967868E-2	2.200605E-2	7.714242E-2	3.164702E-2
10/19/2017  17:38:54.475755	5.115383E-1	1.573716E-2	1.646291E-2	-1.013378E+1	3.497837E-2	2.455003E-2	7.714242E-2	3.673486E-2
10/19/2017  17:38:54.476755	4.378204E-1	1.064948E-2	2.155331E-2	-1.014396E+1	2.222863E-2	3.218199E-2	7.714242E-2	3.164702E-2
10/19/2017  17:38:54.477755	1.141954E+0	8.105642E-3	1.900811E-2	-1.012869E+1	1.457878E-2	1.691808E-2	8.222822E-2	2.910311E-2
10/19/2017  17:38:54.478755	2.644274E+0	8.105642E-3	1.646291E-2	-1.013378E+1	1.967868E-2	1.183011E-2	7.205661E-2	3.927877E-2
10/19/2017  17:38:54.479755	-2.154730E-1	1.573716E-2	1.391770E-2	-1.013378E+1	2.732853E-2	1.946206E-2	6.951371E-2	4.182269E-2
10/19/2017  17:38:54.480755	-1.910985E+0	1.828100E-2	2.155331E-2	-1.014651E+1	1.967868E-2	1.946206E-2	7.205661E-2	3.164702E-2
10/19/2017  17:38:54.481755	-1.209394E+0	1.064948E-2	1.900811E-2	-1.013887E+1	2.222863E-2	1.946206E-2	8.222822E-2	4.182269E-2
10/19/2017  17:38:54.482755	-9.450264E-1	8.105642E-3	1.137250E-2	-1.014905E+1	2.477858E-2	4.198150E-3	7.205661E-2	3.673486E-2
10/19/2017  17:38:54.483755	5.522103E-1	2.591253E-2	1.900811E-2	-1.013632E+1	3.242842E-2	2.200605E-2	6.951371E-2	2.401527E-2
10/19/2017  17:38:54.484755	2.146043E+0	2.082484E-2	2.664372E-2	-1.013887E+1	1.967868E-2	3.981394E-2	7.205661E-2	2.401527E-2
10/19/2017  17:38:54.485755	2.174005E+0	-2.069720E-3	1.900811E-2	-1.012869E+1	1.202884E-2	1.437409E-2	8.222822E-2	3.673486E-2
10/19/2017  17:38:54.486755	6.284702E-1	4.741205E-4	1.137250E-2	-1.013632E+1	2.987847E-2	1.183011E-2	7.459952E-2	3.419094E-2
10/19/2017  17:38:54.487755	-1.077210E+0	1.064948E-2	2.664372E-2	-1.014142E+1	2.732853E-2	2.200605E-2	6.951371E-2	2.655919E-2
10/19/2017  17:38:54.488755	-1.883024E+0	1.319332E-2	2.409852E-2	-1.014905E+1	1.202884E-2	2.455003E-2	7.459952E-2	2.401527E-2
10/19/2017  17:38:54.489755	-2.261781E+0	1.319332E-2	1.391770E-2	-1.014651E+1	9.478889E-3	1.183011E-2	8.222822E-2	2.910311E-2
10/19/2017  17:38:54.490755	-5.532717E-2	1.064948E-2	1.900811E-2	-1.013887E+1	2.477858E-2	1.691808E-2	7.205661E-2	3.164702E-2
10/19/2017  17:38:54.491755	7.072721E-1	1.319332E-2	1.900811E-2	-1.013378E+1	2.732853E-2	3.726996E-2	6.951371E-2	3.164702E-2
10/19/2017  17:38:54.492755	-8.865604E-1	3.100021E-2	1.646291E-2	-1.013632E+1	2.222863E-2	1.946206E-2	7.714242E-2	2.910311E-2
10/19/2017  17:38:54.493755	-9.755303E-1	1.319332E-2	2.155331E-2	-1.013887E+1	1.712873E-2	1.691808E-2	8.222822E-2	3.164702E-2
10/19/2017  17:38:54.494755	9.210870E-2	-2.069720E-3	1.900811E-2	-1.014142E+1	1.457878E-2	1.437409E-2	7.459952E-2	3.419094E-2
10/19/2017  17:38:54.495755	1.256344E+0	1.319332E-2	1.391770E-2	-1.012869E+1	2.987847E-2	2.200605E-2	7.205661E-2	3.419094E-2
10/19/2017  17:38:54.496755	-7.086206E-1	2.082484E-2	1.900811E-2	-1.013887E+1	1.457878E-2	2.709402E-2	7.714242E-2	2.147136E-2
10/19/2017  17:38:54.497755	-9.475684E-1	1.573716E-2	1.900811E-2	-1.013887E+1	1.712873E-2	1.946206E-2	8.222822E-2	2.910311E-2
10/19/2017  17:38:54.498755	-8.840184E-1	5.561801E-3	1.900811E-2	-1.012869E+1	1.967868E-2	1.437409E-2	6.697081E-2	3.419094E-2
10/19/2017  17:38:54.499755	-4.061229E-1	5.561801E-3	1.391770E-2	-1.012869E+1	2.477858E-2	1.183011E-2	6.697081E-2	3.164702E-2
10/19/2017  17:38:54.500755	6.183022E-1	1.828100E-2	1.391770E-2	-1.014396E+1	2.987847E-2	1.946206E-2	7.968532E-2	2.910311E-2
10/19/2017  17:38:54.501755	2.387533E+0	8.105642E-3	2.664372E-2	-1.014651E+1	1.967868E-2	1.183011E-2	6.697081E-2	3.419094E-2
10/19/2017  17:38:54.502755	1.144496E+0	1.064948E-2	2.155331E-2	-1.013378E+1	1.202884E-2	1.691808E-2	7.968532E-2	1.892744E-2
10/19/2017  17:38:54.503755	-2.841070E-1	1.064948E-2	1.391770E-2	-1.012869E+1	1.967868E-2	1.946206E-2	7.968532E-2	2.910311E-2
10/19/2017  17:38:54.504755	2.059615E+0	1.573716E-2	8.827299E-3	-1.013632E+1	2.477858E-2	1.946206E-2	7.205661E-2	3.164702E-2
10/19/2017  17:38:54.505755	1.790163E+0	2.082484E-2	1.646291E-2	-1.015160E+1	2.222863E-2	2.963800E-2	6.697081E-2	2.655919E-2
10/19/2017  17:38:54.506755	7.123561E-1	8.105642E-3	3.173413E-2	-1.013632E+1	1.202884E-2	2.455003E-2	8.222822E-2	3.164702E-2
								
10/19/2017  17:38:54.507755	-2.586870E-1	1.319332E-2	1.646291E-2	-1.013887E+1	1.967868E-2	2.200605E-2	8.731403E-2	3.673486E-2
10/19/2017  17:38:54.508755	-1.875110E-1	1.064948E-2	1.391770E-2	-1.012869E+1	3.242842E-2	2.200605E-2	6.951371E-2	3.164702E-2
10/19/2017  17:38:54.509755	8.089520E-1	1.573716E-2	1.137250E-2	-1.013378E+1	1.967868E-2	1.946206E-2	6.188501E-2	3.164702E-2
10/19/2017  17:38:54.510755	-1.211321E-2	1.573716E-2	1.137250E-2	-1.014396E+1	1.457878E-2	2.455003E-2	7.459952E-2	3.164702E-2
10/19/2017  17:38:54.511755	6.923072E-2	1.319332E-2	2.409852E-2	-1.013378E+1	1.457878E-2	1.946206E-2	7.968532E-2	3.164702E-2
10/19/2017  17:38:54.512755	-5.484747E-1	1.064948E-2	1.900811E-2	-1.013378E+1	2.222863E-2	1.946206E-2	7.459952E-2	4.182269E-2
10/19/2017  17:38:54.513755	-6.043987E-1	5.561801E-3	1.137250E-2	-1.013887E+1	2.477858E-2	1.691808E-2	6.697081E-2	3.164702E-2
10/19/2017  17:38:54.514755	-1.646331E-1	1.828100E-2	1.646291E-2	-1.014142E+1	1.967868E-2	1.946206E-2	7.459952E-2	1.638352E-2
10/19/2017  17:38:54.515755	1.378647E-1	1.064948E-2	2.155331E-2	-1.015669E+1	2.477858E-2	2.709402E-2	7.205661E-2	3.164702E-2
10/19/2017  17:38:54.516755	2.471706E-1	1.319332E-2	2.664372E-2	-1.012869E+1	1.712873E-2	2.709402E-2	7.205661E-2	2.910311E-2
10/19/2017  17:38:54.517755	4.381074E-2	8.105642E-3	1.646291E-2	-1.013887E+1	2.987847E-2	1.946206E-2	7.459952E-2	2.910311E-2
10/19/2017  17:38:54.518755	-1.010831E-1	1.319332E-2	8.827299E-3	-1.014142E+1	1.967868E-2	1.691808E-2	7.459952E-2	3.164702E-2
10/19/2017  17:38:54.519755	7.177272E-2	1.828100E-2	2.155331E-2	-1.014142E+1	1.202884E-2	2.455003E-2	8.477112E-2	2.147136E-2
10/19/2017  17:38:54.520755	3.872675E-2	1.064948E-2	2.664372E-2	-1.013378E+1	1.457878E-2	1.183011E-2	7.968532E-2	3.164702E-2
10/19/2017  17:38:54.521755	-5.786917E-2	5.561801E-3	1.646291E-2	-1.013123E+1	9.478889E-3	1.437409E-2	7.205661E-2	3.164702E-2
10/19/2017  17:38:54.522755	-3.959549E-1	5.561801E-3	3.736893E-3	-1.013887E+1	2.732853E-2	1.691808E-2	7.205661E-2	2.910311E-2
10/19/2017  17:38:54.523755	-7.899645E-1	2.082484E-2	1.646291E-2	-1.013887E+1	1.967868E-2	2.455003E-2	7.714242E-2	3.927877E-2
10/19/2017  17:38:54.524755	5.089963E-1	1.064948E-2	1.900811E-2	-1.012869E+1	2.222863E-2	2.455003E-2	8.222822E-2	3.164702E-2
10/19/2017  17:38:54.525755	5.928822E-1	2.082484E-2	2.155331E-2	-1.013632E+1	1.457878E-2	1.437409E-2	7.714242E-2	2.401527E-2
10/19/2017  17:38:54.526755	5.064543E-1	8.105642E-3	1.900811E-2	-1.013378E+1	2.477858E-2	6.742135E-3	7.205661E-2	3.419094E-2
10/19/2017  17:38:54.527755	-3.552829E-1	5.561801E-3	1.137250E-2	-1.014142E+1	2.732853E-2	3.218199E-2	6.951371E-2	3.164702E-2
10/19/2017  17:38:54.528755	1.531166E-1	2.082484E-2	1.900811E-2	-1.014142E+1	2.222863E-2	2.709402E-2	7.714242E-2	2.401527E-2
10/19/2017  17:38:54.529755	6.615162E-1	1.573716E-2	1.646291E-2	-1.013123E+1	1.457878E-2	1.691808E-2	8.222822E-2	3.673486E-2
10/19/2017  17:38:54.530755	1.274138E+0	8.105642E-3	1.137250E-2	-1.013378E+1	1.967868E-2	1.691808E-2	6.697081E-2	3.673486E-2
10/19/2017  17:38:54.531755	1.431741E+0	1.573716E-2	2.155331E-2	-1.013378E+1	2.477858E-2	2.709402E-2	7.205661E-2	2.910311E-2
10/19/2017  17:38:54.532755	2.675065E-1	2.591253E-2	1.900811E-2	-1.013887E+1	2.222863E-2	2.963800E-2	7.714242E-2	2.655919E-2
10/19/2017  17:38:54.533755	2.929265E-1	1.064948E-2	2.155331E-2	-1.013887E+1	2.477858E-2	1.691808E-2	7.968532E-2	3.164702E-2
10/19/2017  17:38:54.534755	1.040274E+0	-7.157401E-3	1.646291E-2	-1.014142E+1	1.457878E-2	1.691808E-2	7.205661E-2	3.164702E-2
10/19/2017  17:38:54.535755	-1.799138E+0	1.064948E-2	1.137250E-2	-1.013887E+1	2.477858E-2	1.691808E-2	6.951371E-2	2.910311E-2
10/19/2017  17:38:54.536755	-2.943037E+0	3.100021E-2	1.646291E-2	-1.013887E+1	2.477858E-2	2.200605E-2	7.205661E-2	2.655919E-2
10/19/2017  17:38:54.537755	-1.333952E+0	1.319332E-2	2.155331E-2	-1.013887E+1	1.457878E-2	1.183011E-2	7.968532E-2	2.655919E-2
10/19/2017  17:38:54.538755	6.183022E-1	3.017961E-3	1.900811E-2	-1.013887E+1	2.477858E-2	1.183011E-2	7.205661E-2	3.927877E-2
10/19/2017  17:38:54.539755	3.310565E-1	1.573716E-2	1.646291E-2	-1.012869E+1	2.732853E-2	2.200605E-2	6.697081E-2	2.910311E-2
								
10/19/2017  17:38:54.540755	2.827585E-1	1.064948E-2	1.646291E-2	-1.013123E+1	3.497837E-2	2.455003E-2	7.968532E-2	2.401527E-2
10/19/2017  17:38:54.541755	7.962421E-1	1.319332E-2	2.409852E-2	-1.014396E+1	2.222863E-2	1.946206E-2	7.459952E-2	2.655919E-2
10/19/2017  17:38:54.542755	2.242926E-1	1.319332E-2	1.900811E-2	-1.013632E+1	1.457878E-2	1.946206E-2	6.442791E-2	2.910311E-2
10/19/2017  17:38:54.543755	1.037732E+0	1.064948E-2	1.137250E-2	-1.014142E+1	2.477858E-2	9.286120E-3	7.205661E-2	3.673486E-2
10/19/2017  17:38:54.544755	6.462642E-1	1.573716E-2	1.391770E-2	-1.014396E+1	2.987847E-2	2.709402E-2	7.205661E-2	3.419094E-2
10/19/2017  17:38:54.545755	1.152122E+0	1.828100E-2	1.900811E-2	-1.012614E+1	1.712873E-2	3.218199E-2	7.459952E-2	2.655919E-2
10/19/2017  17:38:54.546755	-8.230105E-1	1.064948E-2	2.155331E-2	-1.012869E+1	1.457878E-2	1.946206E-2	7.968532E-2	3.673486E-2
10/19/2017  17:38:54.547755	-5.484747E-1	8.105642E-3	1.391770E-2	-1.014651E+1	1.967868E-2	4.198150E-3	7.459952E-2	2.910311E-2
10/19/2017  17:38:54.548755	1.175287E-1	1.319332E-2	1.900811E-2	-1.014142E+1	2.987847E-2	2.455003E-2	6.951371E-2	2.401527E-2
10/19/2017  17:38:54.549755	3.920644E-1	1.573716E-2	2.155331E-2	-1.014142E+1	2.222863E-2	3.726996E-2	7.459952E-2	2.147136E-2
10/19/2017  17:38:54.550755	-8.328914E-2	1.064948E-2	1.391770E-2	-1.013632E+1	1.202884E-2	1.183011E-2	7.968532E-2	2.910311E-2
10/19/2017  17:38:54.551755	-4.007518E-2	5.561801E-3	1.900811E-2	-1.013123E+1	2.477858E-2	1.183011E-2	6.951371E-2	3.673486E-2
10/19/2017  17:38:54.552755	-2.485190E-1	1.319332E-2	8.827299E-3	-1.013887E+1	1.202884E-2	2.963800E-2	6.951371E-2	3.164702E-2
10/19/2017  17:38:54.553755	-6.145667E-1	2.082484E-2	1.646291E-2	-1.013887E+1	1.967868E-2	2.455003E-2	7.205661E-2	2.147136E-2
10/19/2017  17:38:54.554755	-3.146109E-1	1.064948E-2	1.391770E-2	-1.013378E+1	2.732853E-2	1.946206E-2	7.205661E-2	2.401527E-2
10/19/2017  17:38:54.555755	1.340230E+0	1.064948E-2	1.646291E-2	-1.013887E+1	2.477858E-2	1.946206E-2	7.459952E-2	3.164702E-2
10/19/2017  17:38:54.556755	1.683399E+0	1.319332E-2	1.900811E-2	-1.013632E+1	1.712873E-2	2.963800E-2	7.205661E-2	3.673486E-2
10/19/2017  17:38:54.557755	-4.849248E-1	2.845637E-2	1.900811E-2	-1.012869E+1	1.457878E-2	1.946206E-2	7.205661E-2	2.910311E-2
10/19/2017  17:38:54.558755	-2.155017E+0	1.828100E-2	1.646291E-2	-1.014142E+1	1.712873E-2	9.286120E-3	7.459952E-2	2.147136E-2
10/19/2017  17:38:54.559755	-6.476126E-1	3.017961E-3	2.664372E-2	-1.015415E+1	1.457878E-2	1.946206E-2	8.222822E-2	3.164702E-2
10/19/2017  17:38:54.560755	-7.467505E-1	8.105642E-3	1.900811E-2	-1.012869E+1	2.477858E-2	1.691808E-2	7.459952E-2	3.927877E-2
10/19/2017  17:38:54.561755	4.657824E-1	5.561801E-3	1.391770E-2	-1.012869E+1	3.242842E-2	1.691808E-2	6.951371E-2	2.910311E-2
10/19/2017  17:38:54.562755	4.505304E-1	2.336868E-2	8.827299E-3	-1.014651E+1	2.987847E-2	2.455003E-2	6.951371E-2	2.401527E-2
10/19/2017  17:38:54.563755	5.115383E-1	1.828100E-2	2.155331E-2	-1.013887E+1	3.242842E-2	2.963800E-2	7.968532E-2	2.401527E-2
10/19/2017  17:38:54.564755	-2.561450E-1	1.064948E-2	2.155331E-2	-1.012869E+1	1.457878E-2	2.455003E-2	8.222822E-2	3.419094E-2
10/19/2017  17:38:54.565755	-2.228120E-2	1.064948E-2	1.391770E-2	-1.012614E+1	2.222863E-2	9.286120E-3	7.968532E-2	3.673486E-2
10/19/2017  17:38:54.566755	2.319186E-1	1.573716E-2	8.827299E-3	-1.014651E+1	2.732853E-2	1.691808E-2	6.442791E-2	3.419094E-2
10/19/2017  17:38:54.567755	6.513482E-1	8.105642E-3	2.155331E-2	-1.013378E+1	1.967868E-2	1.946206E-2	7.459952E-2	2.147136E-2
10/19/2017  17:38:54.568755	3.618475E-2	2.082484E-2	1.900811E-2	-1.011850E+1	2.222863E-2	2.709402E-2	7.968532E-2	3.164702E-2
10/19/2017  17:38:54.569755	-1.397502E+0	1.828100E-2	1.646291E-2	-1.013887E+1	1.712873E-2	1.437409E-2	7.968532E-2	3.673486E-2
10/19/2017  17:38:54.570755	-9.094384E-1	3.017961E-3	1.900811E-2	-1.014142E+1	2.477858E-2	1.691808E-2	7.205661E-2	3.419094E-2
10/19/2017  17:38:54.571755	1.210588E+0	1.573716E-2	1.391770E-2	-1.013887E+1	2.222863E-2	2.963800E-2	6.951371E-2	2.147136E-2
10/19/2017  17:38:54.572755	7.657381E-1	2.082484E-2	2.409852E-2	-1.013887E+1	1.457878E-2	2.709402E-2	8.222822E-2	2.910311E-2
								
10/19/2017  17:38:54.573755	-2.027630E-1	1.064948E-2	3.427933E-2	-1.013378E+1	2.222863E-2	6.742135E-3	8.222822E-2	3.164702E-2
10/19/2017  17:38:54.574755	-7.747125E-1	4.741205E-4	1.137250E-2	-1.012614E+1	2.732853E-2	1.691808E-2	5.425630E-2	3.164702E-2
10/19/2017  17:38:54.575755	-4.493368E-1	1.573716E-2	1.191689E-3	-1.013378E+1	1.712873E-2	9.286120E-3	6.951371E-2	2.655919E-2
10/19/2017  17:38:54.576755	4.479884E-1	2.082484E-2	1.900811E-2	-1.013887E+1	1.457878E-2	2.455003E-2	7.968532E-2	2.655919E-2
10/19/2017  17:38:54.577755	1.291932E+0	8.105642E-3	2.664372E-2	-1.012869E+1	2.222863E-2	9.286120E-3	7.968532E-2	3.419094E-2
10/19/2017  17:38:54.578755	7.631961E-1	5.561801E-3	1.137250E-2	-1.012359E+1	1.712873E-2	1.691808E-2	7.459952E-2	3.164702E-2
10/19/2017  17:38:54.579755	2.347476E-2	1.064948E-2	1.137250E-2	-1.013378E+1	2.222863E-2	1.437409E-2	7.205661E-2	2.147136E-2
10/19/2017  17:38:54.580755	-7.975905E-1	3.863173E-2	1.646291E-2	-1.014651E+1	2.987847E-2	2.200605E-2	7.205661E-2	2.655919E-2
10/19/2017  17:38:54.581755	-7.238726E-1	1.064948E-2	1.391770E-2	-1.013887E+1	1.457878E-2	2.200605E-2	7.714242E-2	3.673486E-2
10/19/2017  17:38:54.582755	1.175287E-1	5.561801E-3	1.137250E-2	-1.012105E+1	2.477858E-2	1.691808E-2	6.697081E-2	3.419094E-2
10/19/2017  17:38:54.583755	5.801723E-1	1.828100E-2	8.827299E-3	-1.013632E+1	2.987847E-2	2.709402E-2	6.697081E-2	2.655919E-2
10/19/2017  17:38:54.584755	9.106320E-1	2.082484E-2	2.409852E-2	-1.014396E+1	3.242842E-2	2.963800E-2	8.477112E-2	3.673486E-2
10/19/2017  17:38:54.585755	1.226127E-1	8.105642E-3	2.918892E-2	-1.012105E+1	2.222863E-2	1.946206E-2	7.205661E-2	3.673486E-2
10/19/2017  17:38:54.586755	3.920644E-1	8.105642E-3	1.137250E-2	-1.013632E+1	2.732853E-2	1.946206E-2	6.188501E-2	2.147136E-2
10/19/2017  17:38:54.587755	9.767239E-1	1.828100E-2	1.137250E-2	-1.014142E+1	1.967868E-2	2.455003E-2	7.714242E-2	2.401527E-2
10/19/2017  17:38:54.588755	1.602055E+0	1.319332E-2	2.409852E-2	-1.013887E+1	1.202884E-2	1.946206E-2	8.222822E-2	4.182269E-2
10/19/2017  17:38:54.589755	-1.880482E+0	3.017961E-3	2.155331E-2	-1.013123E+1	1.967868E-2	1.946206E-2	6.951371E-2	3.673486E-2
10/19/2017  17:38:54.590755	-2.165185E+0	8.105642E-3	1.137250E-2	-1.014651E+1	2.477858E-2	2.455003E-2	6.697081E-2	2.147136E-2
10/19/2017  17:38:54.591755	-8.865604E-1	1.064948E-2	1.900811E-2	-1.015924E+1	2.987847E-2	2.455003E-2	5.934210E-2	2.401527E-2
10/19/2017  17:38:54.592755	1.324978E+0	1.573716E-2	2.918892E-2	-1.013887E+1	2.222863E-2	2.200605E-2	7.459952E-2	2.910311E-2
10/19/2017  17:38:54.593755	2.174005E+0	1.573716E-2	2.409852E-2	-1.013378E+1	1.712873E-2	2.455003E-2	6.951371E-2	3.164702E-2
10/19/2017  17:38:54.594755	2.153669E+0	4.741205E-4	1.900811E-2	-1.012359E+1	2.477858E-2	1.437409E-2	6.951371E-2	3.419094E-2
10/19/2017  17:38:54.595755	8.343720E-1	1.319332E-2	1.137250E-2	-1.013887E+1	1.967868E-2	1.946206E-2	8.731403E-2	3.419094E-2
10/19/2017  17:38:54.596755	-8.789344E-1	2.082484E-2	2.664372E-2	-1.014142E+1	2.477858E-2	2.963800E-2	7.714242E-2	3.419094E-2
10/19/2017  17:38:54.597755	-1.354288E+0	8.105642E-3	2.155331E-2	-1.014142E+1	2.222863E-2	2.200605E-2	8.222822E-2	2.910311E-2
10/19/2017  17:38:54.598755	-6.628646E-1	8.105642E-3	6.282096E-3	-1.013378E+1	1.457878E-2	9.286120E-3	7.714242E-2	3.673486E-2
10/19/2017  17:38:54.599755	-8.328914E-2	-4.613560E-3	1.137250E-2	-1.014142E+1	3.497837E-2	1.946206E-2	6.951371E-2	3.164702E-2
10/19/2017  17:38:54.600755	3.138778E-3	1.828100E-2	1.137250E-2	-1.013887E+1	2.477858E-2	4.744590E-2	7.205661E-2	2.655919E-2
10/19/2017  17:38:54.601755	-1.087091E-1	3.354405E-2	2.155331E-2	-1.013887E+1	1.202884E-2	2.963800E-2	7.968532E-2	2.910311E-2
10/19/2017  17:38:54.602755	7.939871E-2	3.017961E-3	2.155331E-2	-1.013378E+1	1.712873E-2	1.654165E-3	7.968532E-2	2.910311E-2
10/19/2017  17:38:54.603755	3.872675E-2	-4.613560E-3	1.391770E-2	-1.014396E+1	3.242842E-2	1.691808E-2	7.205661E-2	3.419094E-2
10/19/2017  17:38:54.604755	-3.019009E-1	1.319332E-2	1.391770E-2	-1.013887E+1	2.732853E-2	2.200605E-2	7.205661E-2	3.164702E-2
10/19/2017  17:38:54.605755	4.708664E-1	1.828100E-2	1.646291E-2	-1.014142E+1	1.202884E-2	2.963800E-2	7.459952E-2	1.892744E-2
								
10/19/2017  17:38:54.606755	1.584877E-2	1.319332E-2	1.900811E-2	-1.013887E+1	1.457878E-2	1.946206E-2	8.222822E-2	3.673486E-2
10/19/2017  17:38:54.607755	-1.283112E+0	8.105642E-3	2.155331E-2	-1.013887E+1	2.987847E-2	1.946206E-2	7.205661E-2	2.655919E-2
10/19/2017  17:38:54.608755	-1.219562E+0	5.561801E-3	1.900811E-2	-1.013632E+1	2.222863E-2	1.691808E-2	6.951371E-2	4.182269E-2
10/19/2017  17:38:54.609755	9.309679E-1	1.573716E-2	1.137250E-2	-1.013887E+1	1.967868E-2	2.200605E-2	7.714242E-2	4.182269E-2
10/19/2017  17:38:54.610755	7.682801E-1	2.082484E-2	1.900811E-2	-1.014142E+1	2.222863E-2	2.455003E-2	7.205661E-2	2.655919E-2
10/19/2017  17:38:54.611755	1.446993E+0	8.105642E-3	1.900811E-2	-1.013632E+1	1.712873E-2	1.946206E-2	8.222822E-2	2.147136E-2
10/19/2017  17:38:54.612755	1.164832E+0	8.105642E-3	2.664372E-2	-1.011341E+1	2.222863E-2	1.946206E-2	7.968532E-2	3.927877E-2
10/19/2017  17:38:54.613755	5.496683E-1	5.561801E-3	8.827299E-3	-1.012869E+1	2.732853E-2	1.691808E-2	6.951371E-2	2.910311E-2
10/19/2017  17:38:54.614755	-1.049248E+0	1.828100E-2	1.137250E-2	-1.016687E+1	2.477858E-2	1.946206E-2	6.442791E-2	2.401527E-2
10/19/2017  17:38:54.615755	-5.688107E-1	1.319332E-2	1.391770E-2	-1.014396E+1	1.457878E-2	2.455003E-2	7.459952E-2	2.147136E-2
10/19/2017  17:38:54.616755	1.091114E+0	1.828100E-2	1.900811E-2	-1.014142E+1	1.712873E-2	2.455003E-2	9.239983E-2	3.164702E-2
10/19/2017  17:38:54.617755	6.691422E-1	1.064948E-2	3.173413E-2	-1.012869E+1	1.712873E-2	1.691808E-2	8.222822E-2	3.927877E-2
10/19/2017  17:38:54.618755	-6.018567E-1	8.105642E-3	1.137250E-2	-1.012869E+1	2.477858E-2	1.183011E-2	6.697081E-2	3.164702E-2
10/19/2017  17:38:54.619755	-1.705084E+0	2.082484E-2	1.391770E-2	-1.014142E+1	1.712873E-2	1.437409E-2	7.459952E-2	2.910311E-2
10/19/2017  17:38:54.620755	-3.552829E-1	1.828100E-2	1.900811E-2	-1.014651E+1	2.477858E-2	2.455003E-2	7.714242E-2	3.164702E-2
10/19/2017  17:38:54.621755	1.035190E+0	1.319332E-2	2.409852E-2	-1.014142E+1	2.222863E-2	2.200605E-2	7.968532E-2	3.419094E-2
10/19/2017  17:38:54.622755	2.128249E+0	-4.613560E-3	1.900811E-2	-1.013123E+1	1.457878E-2	1.691808E-2	7.205661E-2	3.673486E-2
10/19/2017  17:38:54.623755	9.945179E-1	1.064948E-2	1.900811E-2	-1.012869E+1	2.987847E-2	1.437409E-2	6.951371E-2	2.401527E-2
10/19/2017  17:38:54.624755	-1.468391E-1	5.561801E-3	1.391770E-2	-1.014905E+1	2.732853E-2	1.946206E-2	7.714242E-2	3.419094E-2
10/19/2017  17:38:54.625755	-3.883289E-1	2.082484E-2	2.155331E-2	-1.014651E+1	2.477858E-2	1.946206E-2	7.459952E-2	3.927877E-2
10/19/2017  17:38:54.626755	1.861626E-1	1.319332E-2	2.409852E-2	-1.013123E+1	1.712873E-2	2.200605E-2	7.968532E-2	2.910311E-2
10/19/2017  17:38:54.627755	3.285145E-1	8.105642E-3	2.409852E-2	-1.013632E+1	2.222863E-2	1.183011E-2	7.205661E-2	3.927877E-2
10/19/2017  17:38:54.628755	-1.270402E+0	1.064948E-2	1.646291E-2	-1.013632E+1	3.497837E-2	1.946206E-2	6.951371E-2	3.419094E-2
10/19/2017  17:38:54.629755	-6.603226E-1	2.082484E-2	1.646291E-2	-1.015160E+1	2.732853E-2	2.455003E-2	6.951371E-2	2.401527E-2
10/19/2017  17:38:54.630755	-5.281387E-1	2.082484E-2	1.391770E-2	-1.015160E+1	-3.270852E-3	2.963800E-2	7.205661E-2	1.638352E-2
10/19/2017  17:38:54.631755	-4.417108E-1	1.319332E-2	1.900811E-2	-1.012105E+1	1.457878E-2	1.946206E-2	7.714242E-2	3.927877E-2
10/19/2017  17:38:54.632755	6.615162E-1	8.105642E-3	2.409852E-2	-1.013378E+1	2.222863E-2	1.437409E-2	6.951371E-2	3.927877E-2
10/19/2017  17:38:54.633755	2.522258E+0	2.082484E-2	1.137250E-2	-1.011596E+1	1.967868E-2	2.709402E-2	7.459952E-2	3.164702E-2
10/19/2017  17:38:54.634755	4.047744E-1	1.828100E-2	1.646291E-2	-1.013887E+1	1.967868E-2	2.200605E-2	7.459952E-2	2.147136E-2
10/19/2017  17:38:54.635755	-1.786428E+0	1.064948E-2	2.155331E-2	-1.014651E+1	1.712873E-2	1.183011E-2	7.205661E-2	2.910311E-2
10/19/2017  17:38:54.636755	-1.125508E+0	5.561801E-3	1.900811E-2	-1.013632E+1	2.222863E-2	1.946206E-2	7.459952E-2	2.910311E-2
10/19/2017  17:38:54.637755	-3.171529E-1	1.064948E-2	1.391770E-2	-1.013632E+1	2.732853E-2	2.200605E-2	7.459952E-2	2.910311E-2
10/19/2017  17:38:54.638755	3.463085E-1	1.573716E-2	1.137250E-2	-1.014396E+1	2.222863E-2	1.946206E-2	6.951371E-2	2.147136E-2
								
10/19/2017  17:38:54.639755	-8.001325E-1	1.573716E-2	1.900811E-2	-1.013887E+1	1.967868E-2	1.946206E-2	7.968532E-2	2.910311E-2
10/19/2017  17:38:54.640755	-5.840627E-1	1.573716E-2	3.682453E-2	-1.012869E+1	2.222863E-2	1.946206E-2	7.205661E-2	4.182269E-2
10/19/2017  17:38:54.641755	3.110075E-2	1.828100E-2	1.900811E-2	-1.013632E+1	2.477858E-2	1.946206E-2	6.697081E-2	2.401527E-2
10/19/2017  17:38:54.642755	4.403624E-1	1.319332E-2	1.646291E-2	-1.013632E+1	1.712873E-2	2.963800E-2	7.205661E-2	1.892744E-2
10/19/2017  17:38:54.643755	3.920644E-1	2.082484E-2	2.409852E-2	-1.013632E+1	1.202884E-2	2.709402E-2	7.459952E-2	3.164702E-2
10/19/2017  17:38:54.644755	4.251104E-1	1.064948E-2	1.900811E-2	-1.012614E+1	2.222863E-2	1.183011E-2	7.459952E-2	3.164702E-2
10/19/2017  17:38:54.645755	-4.391688E-1	2.336868E-2	1.391770E-2	-1.013123E+1	2.987847E-2	1.946206E-2	6.951371E-2	2.147136E-2
10/19/2017  17:38:54.646755	-8.611404E-1	2.082484E-2	1.646291E-2	-1.014651E+1	2.222863E-2	2.455003E-2	7.459952E-2	2.655919E-2
10/19/2017  17:38:54.647755	3.666444E-1	4.741205E-4	2.664372E-2	-1.014142E+1	9.478889E-3	2.455003E-2	7.968532E-2	2.655919E-2
10/19/2017  17:38:54.648755	8.572500E-1	1.319332E-2	1.900811E-2	-1.013378E+1	2.222863E-2	2.200605E-2	7.714242E-2	3.164702E-2
10/19/2017  17:38:54.649755	4.022324E-1	1.573716E-2	1.646291E-2	-1.013632E+1	3.242842E-2	1.946206E-2	7.714242E-2	2.401527E-2
10/19/2017  17:38:54.650755	5.397873E-2	1.319332E-2	2.409852E-2	-1.014142E+1	2.477858E-2	2.963800E-2	7.714242E-2	3.164702E-2
10/19/2017  17:38:54.651755	-2.307250E-1	5.561801E-3	2.155331E-2	-1.013378E+1	1.457878E-2	1.691808E-2	6.442791E-2	2.655919E-2
10/19/2017  17:38:54.652755	1.076477E-2	1.573716E-2	8.827299E-3	-1.014396E+1	2.732853E-2	2.455003E-2	7.205661E-2	2.910311E-2
10/19/2017  17:38:54.653755	6.894782E-1	2.336868E-2	1.646291E-2	-1.014651E+1	2.222863E-2	2.963800E-2	7.714242E-2	3.419094E-2
10/19/2017  17:38:54.654755	8.852120E-1	1.064948E-2	2.409852E-2	-1.013887E+1	1.712873E-2	2.455003E-2	7.714242E-2	2.910311E-2
10/19/2017  17:38:54.655755	9.665559E-1	5.561801E-3	1.391770E-2	-1.013632E+1	2.732853E-2	1.691808E-2	7.459952E-2	2.401527E-2
10/19/2017  17:38:54.656755	5.496683E-1	1.828100E-2	1.137250E-2	-1.015415E+1	2.732853E-2	2.709402E-2	7.205661E-2	2.401527E-2
10/19/2017  17:38:54.657755	-1.468391E-1	1.573716E-2	2.664372E-2	-1.014651E+1	1.712873E-2	2.963800E-2	7.459952E-2	2.655919E-2
10/19/2017  17:38:54.658755	8.222774E-3	5.561801E-3	2.155331E-2	-1.013378E+1	1.457878E-2	1.946206E-2	6.697081E-2	3.673486E-2
10/19/2017  17:38:54.659755	-1.143302E+0	3.017961E-3	2.155331E-2	-1.013632E+1	2.477858E-2	2.200605E-2	7.714242E-2	2.910311E-2
10/19/2017  17:38:54.660755	-1.384792E+0	2.082484E-2	1.900811E-2	-1.014396E+1	2.222863E-2	2.709402E-2	6.697081E-2	2.401527E-2
10/19/2017  17:38:54.661755	-3.934129E-1	1.319332E-2	2.918892E-2	-1.014396E+1	2.222863E-2	2.455003E-2	7.205661E-2	3.164702E-2
10/19/2017  17:38:54.662755	9.538459E-1	8.105642E-3	1.900811E-2	-1.013632E+1	2.477858E-2	1.946206E-2	7.714242E-2	3.164702E-2
10/19/2017  17:38:54.663755	1.569009E+0	1.064948E-2	1.646291E-2	-1.013632E+1	1.967868E-2	1.183011E-2	7.205661E-2	2.147136E-2
10/19/2017  17:38:54.664755	6.030502E-1	2.082484E-2	2.664372E-2	-1.014651E+1	1.712873E-2	1.946206E-2	8.222822E-2	3.164702E-2
10/19/2017  17:38:54.665755	-3.883289E-1	5.561801E-3	1.900811E-2	-1.012869E+1	2.222863E-2	3.218199E-2	7.714242E-2	3.673486E-2
10/19/2017  17:38:54.666755	4.429044E-1	2.845637E-2	1.137250E-2	-1.014142E+1	3.242842E-2	1.946206E-2	7.205661E-2	1.892744E-2
10/19/2017  17:38:54.667755	-1.214191E-1	1.828100E-2	2.155331E-2	-1.014142E+1	1.712873E-2	2.709402E-2	7.714242E-2	2.401527E-2
10/19/2017  17:38:54.668755	-1.468391E-1	-9.701241E-3	1.900811E-2	-1.013887E+1	1.457878E-2	1.437409E-2	7.205661E-2	3.673486E-2
10/19/2017  17:38:54.669755	-6.603226E-1	1.064948E-2	1.900811E-2	-1.013123E+1	2.732853E-2	2.200605E-2	7.205661E-2	2.910311E-2
10/19/2017  17:38:54.670755	-5.255967E-1	1.319332E-2	1.900811E-2	-1.014396E+1	3.242842E-2	1.946206E-2	7.968532E-2	2.910311E-2
10/19/2017  17:38:54.671755	1.220756E+0	1.064948E-2	1.646291E-2	-1.014396E+1	1.712873E-2	1.183011E-2	7.714242E-2	3.673486E-2
								
10/19/2017  17:38:54.672755	8.597920E-1	3.017961E-3	1.137250E-2	-1.012869E+1	3.497837E-2	1.183011E-2	6.188501E-2	3.419094E-2
10/19/2017  17:38:54.673755	6.259282E-1	1.828100E-2	6.282096E-3	-1.013378E+1	2.987847E-2	2.709402E-2	7.205661E-2	2.401527E-2
10/19/2017  17:38:54.674755	1.040274E+0	2.082484E-2	2.155331E-2	-1.013887E+1	1.457878E-2	2.455003E-2	8.731403E-2	3.673486E-2
10/19/2017  17:38:54.675755	1.497833E+0	5.561801E-3	3.173413E-2	-1.013632E+1	1.202884E-2	1.183011E-2	8.222822E-2	3.673486E-2
10/19/2017  17:38:54.676755	-1.445800E+0	3.017961E-3	1.137250E-2	-1.013378E+1	2.477858E-2	1.183011E-2	6.951371E-2	2.147136E-2
10/19/2017  17:38:54.677755	-2.228735E+0	2.082484E-2	1.137250E-2	-1.014905E+1	2.987847E-2	2.963800E-2	7.714242E-2	2.401527E-2
10/19/2017  17:38:54.678755	4.378204E-1	2.082484E-2	2.918892E-2	-1.014905E+1	1.712873E-2	3.218199E-2	7.968532E-2	2.910311E-2
10/19/2017  17:38:54.679755	-3.196949E-1	5.561801E-3	2.409852E-2	-1.014651E+1	1.712873E-2	1.946206E-2	7.968532E-2	3.927877E-2
10/19/2017  17:38:54.680755	-1.402586E+0	8.105642E-3	1.646291E-2	-1.012869E+1	2.477858E-2	1.183011E-2	6.951371E-2	2.655919E-2
10/19/2017  17:38:54.681755	-1.011118E+0	2.082484E-2	1.137250E-2	-1.013887E+1	2.732853E-2	2.963800E-2	6.442791E-2	2.147136E-2
10/19/2017  17:38:54.682755	-1.275486E+0	2.336868E-2	2.664372E-2	-1.014396E+1	2.222863E-2	3.472597E-2	7.968532E-2	3.164702E-2
10/19/2017  17:38:54.683755	-2.457515E+0	-4.613560E-3	2.155331E-2	-1.013123E+1	1.457878E-2	1.437409E-2	8.222822E-2	3.673486E-2
10/19/2017  17:38:54.684755	6.996461E-1	8.105642E-3	1.191689E-3	-1.012614E+1	1.967868E-2	1.183011E-2	6.951371E-2	2.910311E-2
10/19/2017  17:38:54.685755	2.298563E+0	2.591253E-2	1.137250E-2	-1.013887E+1	2.987847E-2	2.709402E-2	7.205661E-2	2.910311E-2
10/19/2017  17:38:54.686755	1.937886E-1	1.828100E-2	2.155331E-2	-1.013887E+1	1.967868E-2	3.726996E-2	7.968532E-2	3.164702E-2
10/19/2017  17:38:54.687755	-8.357205E-1	4.741205E-4	2.155331E-2	-1.013887E+1	1.457878E-2	1.946206E-2	7.459952E-2	3.927877E-2
10/19/2017  17:38:54.688755	5.089963E-1	1.064948E-2	1.137250E-2	-1.013632E+1	2.987847E-2	1.691808E-2	6.951371E-2	2.147136E-2
10/19/2017  17:38:54.689755	1.309726E+0	4.371941E-2	1.900811E-2	-1.014651E+1	2.987847E-2	2.455003E-2	7.714242E-2	2.655919E-2
10/19/2017  17:38:54.690755	2.507007E+0	1.064948E-2	2.409852E-2	-1.012359E+1	1.712873E-2	2.200605E-2	8.222822E-2	3.164702E-2
10/19/2017  17:38:54.691755	1.302387E-1	8.105642E-3	1.646291E-2	-1.012105E+1	1.967868E-2	1.183011E-2	7.714242E-2	3.164702E-2
10/19/2017  17:38:54.692755	-6.425286E-1	2.082484E-2	8.827299E-3	-1.013887E+1	2.987847E-2	1.946206E-2	6.951371E-2	2.401527E-2
10/19/2017  17:38:54.693755	-3.349469E-1	1.573716E-2	1.646291E-2	-1.014142E+1	1.457878E-2	1.946206E-2	6.951371E-2	3.673486E-2
10/19/2017  17:38:54.694755	-6.323606E-1	1.828100E-2	1.900811E-2	-1.013378E+1	1.712873E-2	2.709402E-2	8.477112E-2	3.164702E-2
10/19/2017  17:38:54.695755	-3.247789E-1	5.561801E-3	1.900811E-2	-1.013123E+1	2.222863E-2	1.437409E-2	7.205661E-2	2.401527E-2
10/19/2017  17:38:54.696755	4.632404E-1	1.319332E-2	8.827299E-3	-1.015160E+1	2.987847E-2	1.691808E-2	7.205661E-2	3.419094E-2
10/19/2017  17:38:54.697755	5.089963E-1	1.319332E-2	2.409852E-2	-1.014396E+1	1.967868E-2	1.691808E-2	7.459952E-2	4.182269E-2
10/19/2017  17:38:54.698755	6.208442E-1	1.064948E-2	2.409852E-2	-1.011596E+1	1.457878E-2	2.709402E-2	8.731403E-2	2.910311E-2
10/19/2017  17:38:54.699755	-2.078470E-1	1.064948E-2	1.137250E-2	-1.013378E+1	1.967868E-2	1.183011E-2	7.459952E-2	3.673486E-2
10/19/2017  17:38:54.700755	-8.052165E-1	8.105642E-3	1.137250E-2	-1.014905E+1	2.477858E-2	1.183011E-2	5.679920E-2	3.419094E-2
10/19/2017  17:38:54.701755	8.222774E-3	1.064948E-2	1.191689E-3	-1.014651E+1	2.477858E-2	2.963800E-2	7.459952E-2	2.910311E-2
10/19/2017  17:38:54.702755	-1.211321E-2	1.319332E-2	2.918892E-2	-1.014651E+1	1.457878E-2	2.963800E-2	6.188501E-2	3.164702E-2
10/19/2017  17:38:54.703755	-4.261718E-2	1.319332E-2	1.646291E-2	-1.013887E+1	2.222863E-2	2.455003E-2	7.205661E-2	3.419094E-2
10/19/2017  17:38:54.704755	-2.383510E-1	8.105642E-3	1.900811E-2	-1.014142E+1	1.712873E-2	1.946206E-2	7.459952E-2	3.419094E-2
								
10/19/2017  17:38:54.705755	-4.645888E-1	1.064948E-2	-1.353514E-3	-1.014142E+1	2.222863E-2	3.218199E-2	6.951371E-2	2.401527E-2
10/19/2017  17:38:54.706755	2.064986E-1	1.319332E-2	2.155331E-2	-1.013887E+1	1.712873E-2	1.946206E-2	8.222822E-2	3.164702E-2
10/19/2017  17:38:54.707755	8.750440E-1	5.561801E-3	1.900811E-2	-1.012614E+1	3.242842E-2	2.200605E-2	6.951371E-2	2.655919E-2
10/19/2017  17:38:54.708755	1.790163E+0	4.741205E-4	1.137250E-2	-1.014396E+1	1.967868E-2	1.946206E-2	6.442791E-2	2.910311E-2
10/19/2017  17:38:54.709755	1.073320E+0	2.082484E-2	1.646291E-2	-1.014142E+1	1.967868E-2	1.691808E-2	7.205661E-2	3.673486E-2
10/19/2017  17:38:54.710755	5.827143E-1	1.064948E-2	2.664372E-2	-1.014142E+1	2.987847E-2	2.455003E-2	8.222822E-2	3.164702E-2
10/19/2017  17:38:54.711755	5.750883E-1	1.319332E-2	2.155331E-2	-1.013887E+1	1.967868E-2	2.200605E-2	7.968532E-2	4.182269E-2
10/19/2017  17:38:54.712755	1.841003E+0	1.319332E-2	1.900811E-2	-1.013378E+1	1.202884E-2	2.200605E-2	7.205661E-2	2.147136E-2
10/19/2017  17:38:54.713755	1.500375E+0	1.064948E-2	2.155331E-2	-1.013378E+1	1.457878E-2	1.946206E-2	8.222822E-2	3.164702E-2
10/19/2017  17:38:54.714755	-4.620468E-1	1.828100E-2	1.900811E-2	-1.013123E+1	3.497837E-2	1.183011E-2	7.205661E-2	4.436661E-2
10/19/2017  17:38:54.715755	1.319894E+0	1.319332E-2	1.900811E-2	-1.012869E+1	2.477858E-2	2.200605E-2	6.697081E-2	2.910311E-2
10/19/2017  17:38:54.716755	-2.790230E-1	1.064948E-2	1.646291E-2	-1.014651E+1	1.967868E-2	1.946206E-2	7.459952E-2	2.147136E-2
10/19/2017  17:38:54.717755	-1.956741E+0	1.319332E-2	1.137250E-2	-1.015415E+1	1.457878E-2	1.437409E-2	7.714242E-2	3.164702E-2
10/19/2017  17:38:54.718755	-1.590694E+0	1.573716E-2	1.646291E-2	-1.014396E+1	1.712873E-2	2.200605E-2	7.459952E-2	4.436661E-2
10/19/2017  17:38:54.719755	-7.518345E-1	1.319332E-2	2.155331E-2	-1.014651E+1	2.222863E-2	3.218199E-2	7.968532E-2	2.655919E-2
10/19/2017  17:38:54.720755	-2.358090E-1	1.064948E-2	2.155331E-2	-1.013632E+1	1.712873E-2	1.946206E-2	8.222822E-2	3.164702E-2
10/19/2017  17:38:54.721755	-5.024317E-2	1.064948E-2	1.646291E-2	-1.012359E+1	1.967868E-2	1.946206E-2	7.205661E-2	3.164702E-2
10/19/2017  17:38:54.722755	-6.295316E-2	5.561801E-3	1.900811E-2	-1.013378E+1	2.477858E-2	2.709402E-2	7.459952E-2	2.655919E-2
10/19/2017  17:38:54.723755	3.386825E-1	8.105642E-3	1.646291E-2	-1.013887E+1	2.222863E-2	2.200605E-2	8.985693E-2	3.164702E-2
10/19/2017  17:38:54.724755	6.055922E-1	2.082484E-2	8.827299E-3	-1.013632E+1	1.967868E-2	1.946206E-2	7.714242E-2	3.419094E-2
10/19/2017  17:38:54.725755	4.098584E-1	1.573716E-2	1.646291E-2	-1.013887E+1	1.967868E-2	1.946206E-2	7.459952E-2	3.164702E-2
10/19/2017  17:38:54.726755	-3.298629E-1	2.591253E-2	2.155331E-2	-1.014396E+1	2.477858E-2	3.472597E-2	7.714242E-2	2.655919E-2
10/19/2017  17:38:54.727755	2.347476E-2	1.828100E-2	2.409852E-2	-1.013632E+1	1.712873E-2	2.200605E-2	7.968532E-2	3.164702E-2
10/19/2017  17:38:54.728755	-1.010831E-1	8.105642E-3	6.282096E-3	-1.013632E+1	2.987847E-2	1.691808E-2	7.205661E-2	4.182269E-2
10/19/2017  17:38:54.729755	-1.183974E+0	3.100021E-2	1.137250E-2	-1.014651E+1	2.987847E-2	2.709402E-2	6.697081E-2	2.655919E-2
10/19/2017  17:38:54.730755	-9.246904E-1	1.828100E-2	2.664372E-2	-1.014905E+1	2.477858E-2	2.963800E-2	7.714242E-2	3.419094E-2
10/19/2017  17:38:54.731755	-8.074715E-2	3.100021E-2	1.900811E-2	-1.014651E+1	1.712873E-2	1.946206E-2	7.459952E-2	3.419094E-2
10/19/2017  17:38:54.732755	6.106762E-1	1.064948E-2	1.900811E-2	-1.014396E+1	2.222863E-2	9.286120E-3	7.205661E-2	3.164702E-2
10/19/2017  17:38:54.733755	5.652073E-2	5.561801E-3	1.900811E-2	-1.015160E+1	1.457878E-2	2.709402E-2	7.205661E-2	2.655919E-2
10/19/2017  17:38:54.734755	1.617307E+0	1.573716E-2	2.409852E-2	-1.013887E+1	1.457878E-2	1.946206E-2	7.968532E-2	2.910311E-2
10/19/2017  17:38:54.735755	-1.656786E+0	1.319332E-2	1.646291E-2	-1.012614E+1	2.987847E-2	1.946206E-2	7.968532E-2	3.164702E-2
10/19/2017  17:38:54.736755	-2.541401E+0	1.064948E-2	1.646291E-2	-1.013378E+1	1.967868E-2	1.946206E-2	7.459952E-2	2.655919E-2
10/19/2017  17:38:54.737755	-6.959106E-1	1.319332E-2	2.664372E-2	-1.014396E+1	1.202884E-2	2.200605E-2	7.714242E-2	3.164702E-2
								
10/19/2017  17:38:54.738755	1.663063E+0	5.561801E-3	1.646291E-2	-1.012105E+1	2.477858E-2	1.437409E-2	7.968532E-2	3.673486E-2
10/19/2017  17:38:54.739755	2.278227E+0	1.319332E-2	8.827299E-3	-1.013887E+1	2.987847E-2	1.946206E-2	6.951371E-2	1.383961E-2
10/19/2017  17:38:54.740755	1.663063E+0	1.828100E-2	1.646291E-2	-1.013887E+1	1.712873E-2	2.963800E-2	7.968532E-2	2.655919E-2
10/19/2017  17:38:54.741755	-1.061958E+0	8.105642E-3	1.646291E-2	-1.013632E+1	1.457878E-2	1.437409E-2	7.968532E-2	3.673486E-2
10/19/2017  17:38:54.742755	-8.408045E-1	1.064948E-2	1.137250E-2	-1.015669E+1	2.987847E-2	6.742135E-3	7.459952E-2	3.419094E-2
10/19/2017  17:38:54.743755	5.471263E-1	2.336868E-2	1.900811E-2	-1.014651E+1	3.242842E-2	2.200605E-2	6.951371E-2	2.401527E-2
10/19/2017  17:38:54.744755	1.769827E+0	2.082484E-2	2.409852E-2	-1.013887E+1	2.222863E-2	2.963800E-2	7.459952E-2	2.910311E-2
10/19/2017  17:38:54.745755	6.668872E-2	3.017961E-3	1.646291E-2	-1.012869E+1	1.202884E-2	2.200605E-2	8.222822E-2	3.927877E-2
10/19/2017  17:38:54.746755	4.381074E-2	1.064948E-2	1.900811E-2	-1.013632E+1	1.967868E-2	1.946206E-2	7.968532E-2	3.164702E-2
10/19/2017  17:38:54.747755	-3.857869E-1	1.573716E-2	6.282096E-3	-1.013887E+1	3.497837E-2	2.709402E-2	7.205661E-2	3.164702E-2
10/19/2017  17:38:54.748755	1.584877E-2	8.105642E-3	1.646291E-2	-1.013887E+1	1.712873E-2	2.709402E-2	6.697081E-2	2.401527E-2
10/19/2017  17:38:54.749755	-3.400309E-1	8.105642E-3	2.409852E-2	-1.013632E+1	1.712873E-2	9.286120E-3	8.222822E-2	3.673486E-2
10/19/2017  17:38:54.750755	-7.518345E-1	1.573716E-2	1.646291E-2	-1.013887E+1	2.987847E-2	1.946206E-2	6.951371E-2	2.401527E-2
10/19/2017  17:38:54.751755	-6.425286E-1	1.828100E-2	1.900811E-2	-1.013887E+1	2.477858E-2	3.981394E-2	8.222822E-2	2.655919E-2
10/19/2017  17:38:54.752755	-3.527409E-1	2.591253E-2	2.155331E-2	-1.013378E+1	1.967868E-2	2.200605E-2	7.968532E-2	3.164702E-2
10/19/2017  17:38:54.753755	-6.628646E-1	8.105642E-3	1.646291E-2	-1.013632E+1	1.967868E-2	1.654165E-3	6.697081E-2	2.910311E-2
10/19/2017  17:38:54.754755	2.257891E+0	1.828100E-2	1.391770E-2	-1.014142E+1	3.242842E-2	1.946206E-2	6.951371E-2	3.419094E-2
10/19/2017  17:38:54.755755	1.708819E+0	1.573716E-2	1.900811E-2	-1.013887E+1	2.222863E-2	1.946206E-2	7.459952E-2	2.655919E-2
10/19/2017  17:38:54.756755	3.158045E-1	1.319332E-2	2.155331E-2	-1.012359E+1	1.202884E-2	1.946206E-2	8.222822E-2	2.655919E-2
10/19/2017  17:38:54.757755	1.698651E+0	5.561801E-3	1.391770E-2	-1.013632E+1	2.222863E-2	1.946206E-2	7.205661E-2	3.164702E-2
10/19/2017  17:38:54.758755	1.836206E-1	1.064948E-2	1.391770E-2	-1.013378E+1	3.497837E-2	2.455003E-2	6.188501E-2	2.655919E-2
10/19/2017  17:38:54.759755	-1.870314E+0	1.064948E-2	1.900811E-2	-1.013378E+1	1.967868E-2	1.946206E-2	7.459952E-2	3.164702E-2
10/19/2017  17:38:54.760755	-1.855062E+0	1.828100E-2	1.646291E-2	-1.014396E+1	1.457878E-2	1.946206E-2	8.222822E-2	4.182269E-2
10/19/2017  17:38:54.761755	4.635274E-2	1.064948E-2	1.900811E-2	-1.012614E+1	2.222863E-2	1.183011E-2	7.205661E-2	3.419094E-2
10/19/2017  17:38:54.762755	-2.790230E-1	2.082484E-2	1.900811E-2	-1.014142E+1	2.477858E-2	2.200605E-2	7.459952E-2	2.401527E-2
10/19/2017  17:38:54.763755	-5.561007E-1	2.082484E-2	1.900811E-2	-1.012869E+1	2.222863E-2	2.455003E-2	7.968532E-2	2.910311E-2
10/19/2017  17:38:54.764755	1.068236E+0	1.828100E-2	1.137250E-2	-1.013632E+1	2.222863E-2	1.946206E-2	7.968532E-2	3.164702E-2
10/19/2017  17:38:54.765755	1.352940E+0	3.017961E-3	1.137250E-2	-1.012869E+1	2.987847E-2	2.455003E-2	6.442791E-2	3.673486E-2
10/19/2017  17:38:54.766755	-1.473762E+0	1.064948E-2	1.191689E-3	-1.014396E+1	2.732853E-2	2.963800E-2	6.951371E-2	2.401527E-2
10/19/2017  17:38:54.767755	-2.805769E+0	2.082484E-2	2.155331E-2	-1.014651E+1	1.712873E-2	2.963800E-2	7.205661E-2	2.401527E-2
10/19/2017  17:38:54.768755	1.785366E-1	1.319332E-2	1.900811E-2	-1.013887E+1	1.967868E-2	1.437409E-2	7.968532E-2	3.927877E-2
10/19/2017  17:38:54.769755	3.910189E+0	1.064948E-2	1.391770E-2	-1.012869E+1	2.477858E-2	1.437409E-2	6.697081E-2	3.164702E-2
10/19/2017  17:38:54.770755	1.952851E+0	1.828100E-2	1.137250E-2	-1.014142E+1	2.477858E-2	2.963800E-2	6.951371E-2	2.147136E-2
								
10/19/2017  17:38:54.771755	2.621396E+0	2.845637E-2	2.155331E-2	-1.013887E+1	1.457878E-2	2.455003E-2	8.222822E-2	3.164702E-2
10/19/2017  17:38:54.772755	5.623783E-1	1.319332E-2	1.137250E-2	-1.013632E+1	2.222863E-2	3.218199E-2	7.459952E-2	3.673486E-2
10/19/2017  17:38:54.773755	-1.717794E+0	-4.613560E-3	1.900811E-2	-1.012869E+1	1.457878E-2	1.437409E-2	7.205661E-2	3.419094E-2
10/19/2017  17:38:54.774755	-7.696285E-1	1.319332E-2	2.155331E-2	-1.014142E+1	2.477858E-2	6.742135E-3	7.205661E-2	2.401527E-2
10/19/2017  17:38:54.775755	8.928380E-1	2.845637E-2	2.155331E-2	-1.015160E+1	2.732853E-2	2.455003E-2	7.714242E-2	2.910311E-2
10/19/2017  17:38:54.776755	-1.755924E+0	8.105642E-3	2.918892E-2	-1.013632E+1	1.457878E-2	1.691808E-2	7.968532E-2	4.182269E-2
10/19/2017  17:38:54.777755	-3.392970E+0	8.105642E-3	1.646291E-2	-1.012359E+1	1.712873E-2	1.691808E-2	7.459952E-2	3.419094E-2
10/19/2017  17:38:54.778755	-1.656786E+0	2.082484E-2	1.137250E-2	-1.014142E+1	2.732853E-2	1.946206E-2	6.951371E-2	2.655919E-2
10/19/2017  17:38:54.779755	9.538459E-1	2.082484E-2	1.900811E-2	-1.014142E+1	3.497837E-2	2.709402E-2	7.205661E-2	2.910311E-2
10/19/2017  17:38:54.780755	2.273143E+0	1.319332E-2	2.918892E-2	-1.013887E+1	1.712873E-2	2.200605E-2	7.714242E-2	3.164702E-2
10/19/2017  17:38:54.781755	3.869804E-1	5.561801E-3	2.409852E-2	-1.012614E+1	4.378993E-3	1.437409E-2	7.968532E-2	2.655919E-2
10/19/2017  17:38:54.782755	7.177272E-2	5.561801E-3	6.282096E-3	-1.014396E+1	2.732853E-2	1.437409E-2	6.951371E-2	3.164702E-2
10/19/2017  17:38:54.783755	-1.366711E-1	1.828100E-2	1.137250E-2	-1.014651E+1	2.477858E-2	2.709402E-2	7.205661E-2	3.673486E-2
10/19/2017  17:38:54.784755	5.420423E-1	2.082484E-2	2.155331E-2	-1.013887E+1	1.457878E-2	3.218199E-2	7.968532E-2	2.910311E-2
10/19/2017  17:38:54.785755	1.226127E-1	1.573716E-2	1.391770E-2	-1.013378E+1	2.222863E-2	2.200605E-2	7.205661E-2	3.419094E-2
10/19/2017  17:38:54.786755	3.872675E-2	1.319332E-2	2.155331E-2	-1.014651E+1	2.222863E-2	1.946206E-2	6.951371E-2	2.910311E-2
10/19/2017  17:38:54.787755	-7.289566E-1	8.105642E-3	1.900811E-2	-1.014396E+1	2.732853E-2	2.455003E-2	6.951371E-2	2.147136E-2
10/19/2017  17:38:54.788755	2.014146E-1	1.573716E-2	1.900811E-2	-1.014142E+1	2.222863E-2	2.709402E-2	7.205661E-2	2.401527E-2
10/19/2017  17:38:54.789755	1.215672E+0	1.573716E-2	8.827299E-3	-1.013887E+1	1.457878E-2	1.946206E-2	7.714242E-2	2.910311E-2
10/19/2017  17:38:54.790755	8.623340E-1	8.105642E-3	1.900811E-2	-1.013123E+1	2.477858E-2	1.691808E-2	6.697081E-2	3.673486E-2
10/19/2017  17:38:54.791755	-8.583114E-2	1.064948E-2	6.282096E-3	-1.013632E+1	2.987847E-2	2.963800E-2	6.951371E-2	3.164702E-2
10/19/2017  17:38:54.792755	3.056365E-1	1.573716E-2	1.646291E-2	-1.013887E+1	1.712873E-2	1.946206E-2	7.205661E-2	2.401527E-2
10/19/2017  17:38:54.793755	-1.483930E+0	1.319332E-2	1.391770E-2	-1.015160E+1	9.478889E-3	3.472597E-2	7.714242E-2	2.401527E-2
10/19/2017  17:38:54.794755	-1.944031E+0	5.561801E-3	2.664372E-2	-1.014905E+1	1.202884E-2	1.946206E-2	7.968532E-2	3.927877E-2
10/19/2017  17:38:54.795755	-9.145224E-1	5.561801E-3	1.646291E-2	-1.013123E+1	2.732853E-2	1.946206E-2	7.459952E-2	3.419094E-2
