Parameters: 	Upper Cutoff:  300	Lower Cutoff: 30	Sample Rate (Hz): 1000	Frames Per Second30	Display Window Size (S)400	MVC Window Size (s): 400	Seconds To Acquire MVC: 3	Display Channel: 0
waveform	[0]	[1]	[2]	[3]	[4]	[5]	[6]	[7]
t0	10/19/2017  17:45:33.184764	10/19/2017  17:45:33.184764	10/19/2017  17:45:33.184764	10/19/2017  17:45:33.184764	10/19/2017  17:45:33.184764	10/19/2017  17:45:33.184764	10/19/2017  17:45:33.184764	10/19/2017  17:45:33.184764
delta t	0.001000	0.001000	0.001000	0.001000	0.001000	0.001000	0.001000	0.001000

time	Y[0]	Y[1]	Y[2]	Y[3]	Y[4]	Y[5]	Y[6]	Y[7]
10/19/2017  17:45:33.178013	2.324778E-1	1.711721E-3	1.129646E-3	3.131639E-3	5.084494E-3	2.469963E-4	6.928968E-3	2.413648E-3
10/19/2017  17:45:33.179013	1.772205E-1	4.516027E-3	6.822051E-3	3.382089E-3	1.902058E-3	2.514912E-3	4.251094E-3	2.009219E-3
10/19/2017  17:45:33.180013	1.562789E-1	2.241777E-3	1.944128E-3	1.212400E-2	9.138449E-4	1.962817E-3	4.850825E-3	3.009188E-3
10/19/2017  17:45:33.181013	1.035599E-1	6.065612E-4	7.286198E-3	1.704083E-3	9.108178E-3	2.956177E-3	7.548493E-3	7.061742E-3
10/19/2017  17:45:33.182013	6.877794E-2	1.174408E-3	6.407708E-3	6.678872E-3	5.263500E-3	7.415226E-3	5.668445E-3	5.785751E-3
10/19/2017  17:45:33.183013	2.440247E-1	6.626447E-5	3.141061E-5	1.147541E-3	1.843441E-3	1.673348E-3	4.488548E-4	5.400118E-4
10/19/2017  17:45:33.184013	2.925102E-1	1.142030E-3	3.249542E-4	6.225949E-3	4.601948E-4	6.092279E-3	4.714469E-3	1.614477E-3
10/19/2017  17:45:33.185013	2.031915E-1	2.919055E-3	2.892800E-3	1.310059E-4	2.995315E-3	3.321870E-3	4.176082E-3	5.591703E-3
10/19/2017  17:45:33.186013	5.818660E-2	4.802997E-3	3.235986E-3	3.225880E-3	2.060152E-3	5.665795E-3	5.946252E-3	7.255452E-3
10/19/2017  17:45:33.187013	7.235210E-2	2.086883E-3	7.709414E-3	1.279636E-3	9.299846E-4	1.760897E-3	5.257728E-3	2.721887E-3
10/19/2017  17:45:33.188013	2.020106E-1	6.962731E-3	1.281999E-3	1.583970E-3	3.610057E-3	8.514046E-4	5.321648E-3	6.391343E-3
10/19/2017  17:45:33.189013	2.619463E-1	3.578857E-3	1.281143E-3	3.967312E-3	2.205573E-3	6.243381E-3	4.224029E-3	9.526449E-4
10/19/2017  17:45:33.190013	1.978216E-1	8.721505E-4	5.826326E-3	3.019521E-3	7.369835E-3	1.034543E-3	5.767473E-3	2.999039E-3
10/19/2017  17:45:33.191013	2.655820E-1	2.432751E-3	5.215836E-3	1.503014E-3	1.117864E-2	7.693044E-3	4.792198E-3	4.643400E-3
10/19/2017  17:45:33.192013	4.906727E-1	1.212652E-3	3.298767E-3	1.656927E-3	1.731511E-3	4.202962E-3	1.072821E-3	3.261262E-3
10/19/2017  17:45:33.193013	2.694878E-1	4.810485E-3	2.406452E-3	3.989800E-3	6.352696E-3	1.023454E-4	2.043601E-3	3.400423E-3
10/19/2017  17:45:33.194013	3.826867E-1	5.766152E-3	2.733525E-4	1.979577E-3	2.097604E-3	6.587913E-5	1.575311E-3	4.082997E-3
10/19/2017  17:45:33.195013	5.802011E-1	5.203778E-5	6.066250E-3	1.008736E-4	4.601006E-3	2.328260E-3	6.047381E-3	3.204809E-4
10/19/2017  17:45:33.196013	2.957146E-1	1.077664E-3	5.615972E-3	1.168417E-2	5.578152E-3	2.559371E-3	2.078090E-3	5.172717E-3
10/19/2017  17:45:33.197013	1.758965E-1	1.699066E-4	3.876467E-3	5.433894E-3	3.925723E-3	3.425630E-4	6.179683E-3	6.200520E-3
10/19/2017  17:45:33.198013	1.604413E-1	2.247304E-3	2.895695E-3	1.508721E-2	7.690533E-4	1.353046E-3	3.109289E-4	8.714998E-3
10/19/2017  17:45:33.199013	3.431367E-2	3.488664E-4	5.516275E-3	1.017084E-2	5.468639E-3	2.828988E-3	7.766899E-3	6.896183E-3
10/19/2017  17:45:33.200013	4.908573E-2	9.915785E-4	3.224188E-3	1.035470E-2	3.312044E-3	2.017089E-3	5.976390E-3	8.638744E-3
10/19/2017  17:45:33.201013	3.480711E-1	6.056309E-3	3.248609E-3	7.380129E-3	5.350556E-4	4.597780E-3	2.092203E-3	3.339113E-3
10/19/2017  17:45:33.202013	6.856826E-1	1.926288E-3	3.863308E-4	5.054971E-4	3.810738E-3	6.077167E-3	4.359862E-4	4.001691E-3
10/19/2017  17:45:33.203013	6.732966E-1	9.876181E-3	7.186284E-4	1.024719E-2	3.482313E-3	3.008246E-3	1.515375E-3	9.747404E-4
10/19/2017  17:45:33.204013	1.105371E-1	3.250241E-3	2.922577E-3	9.419879E-3	4.419227E-3	1.809441E-3	3.041016E-3	1.128518E-3
10/19/2017  17:45:33.205013	6.759841E-1	6.653845E-3	4.390712E-3	9.181946E-3	4.933295E-3	9.212351E-3	7.167737E-4	3.128141E-3
10/19/2017  17:45:33.206013	1.049264E+0	4.174918E-3	1.053142E-2	9.123117E-3	2.600548E-3	2.258137E-3	1.943650E-3	2.056594E-3
10/19/2017  17:45:33.207013	8.321191E-1	1.185117E-2	1.291517E-3	2.916360E-3	1.492836E-3	1.150917E-2	3.018975E-3	6.695159E-3
10/19/2017  17:45:33.208013	4.131997E-1	1.673066E-4	9.658259E-3	4.503888E-3	2.537654E-3	6.223863E-3	7.058073E-3	5.440149E-4
10/19/2017  17:45:33.209013	9.992393E-2	9.009299E-3	7.516410E-4	1.097700E-2	1.384864E-3	3.114344E-4	2.303168E-4	6.877792E-3
10/19/2017  17:45:33.210013	8.850343E-2	6.709343E-3	4.533714E-3	2.227329E-3	1.148224E-4	6.633303E-3	2.908282E-3	1.758689E-3
								
10/19/2017  17:45:33.211013	1.546922E-1	2.171423E-3	3.044376E-3	2.788795E-3	3.996520E-3	7.333929E-3	4.575942E-3	3.123233E-3
10/19/2017  17:45:33.212013	1.022601E-1	3.260626E-4	6.408585E-3	1.139751E-2	5.079022E-3	2.229253E-3	5.370962E-3	7.945200E-4
10/19/2017  17:45:33.213013	5.527364E-2	2.305735E-3	1.790594E-3	7.766631E-3	6.194946E-3	2.947438E-3	1.544882E-3	2.613062E-4
10/19/2017  17:45:33.214013	1.017219E-1	3.818029E-3	8.210791E-4	5.442960E-3	1.104436E-2	6.170190E-4	8.832946E-4	2.564979E-3
10/19/2017  17:45:33.215013	1.580355E-1	8.334672E-4	7.144859E-4	9.511378E-3	8.854903E-3	4.936846E-3	1.721241E-3	5.532787E-3
10/19/2017  17:45:33.216013	1.487300E-1	4.343045E-3	3.995218E-3	8.374358E-3	1.049792E-2	3.443914E-3	1.476852E-3	9.148243E-3
10/19/2017  17:45:33.217013	6.504266E-2	5.671123E-3	1.662341E-3	3.076130E-3	6.097184E-3	6.546169E-3	1.284647E-4	1.830000E-3
10/19/2017  17:45:33.218013	5.755309E-2	1.820320E-5	3.664107E-3	3.508694E-3	7.050138E-3	1.888196E-3	1.863460E-3	9.229141E-3
10/19/2017  17:45:33.219013	6.309677E-2	3.096823E-3	4.105815E-3	2.642525E-3	7.294431E-4	5.878702E-3	5.883639E-3	3.866181E-3
10/19/2017  17:45:33.220013	4.057710E-2	4.197604E-4	4.558782E-4	3.963251E-4	3.981531E-3	3.840842E-4	3.921491E-3	2.459509E-3
10/19/2017  17:45:33.221013	5.762596E-3	4.205377E-4	6.518709E-3	5.911153E-3	3.519127E-4	2.580059E-3	9.111098E-3	2.377230E-3
10/19/2017  17:45:33.222013	1.302353E-1	2.445895E-3	9.523038E-4	9.941336E-3	3.156864E-3	4.000933E-3	3.940336E-3	1.374148E-3
10/19/2017  17:45:33.223013	1.279548E-2	2.025720E-3	2.519231E-3	1.853350E-3	2.196396E-3	5.172260E-3	9.625364E-3	2.037282E-3
10/19/2017  17:45:33.224013	2.919160E-1	2.076021E-3	4.579766E-3	6.659987E-4	5.875189E-3	5.170080E-3	5.182554E-3	1.843961E-3
10/19/2017  17:45:33.225013	2.803098E-1	1.537002E-3	9.835263E-3	1.775902E-3	1.864086E-3	2.584762E-3	1.183799E-3	1.440698E-3
10/19/2017  17:45:33.226013	1.282832E-1	2.500761E-3	3.514173E-3	4.429715E-3	9.262270E-3	9.392780E-3	1.214738E-3	4.492679E-3
10/19/2017  17:45:33.227013	3.888529E-1	3.583225E-3	6.815521E-3	5.139579E-3	3.883483E-3	8.305324E-3	4.573890E-4	4.838663E-3
10/19/2017  17:45:33.228013	8.887176E-1	2.224823E-3	4.116053E-3	1.051469E-3	8.098740E-3	8.559110E-3	4.325470E-5	5.574357E-4
10/19/2017  17:45:33.229013	7.618815E-1	2.698794E-4	1.111280E-3	9.736448E-3	3.334111E-3	8.373541E-3	5.262676E-3	3.714108E-3
10/19/2017  17:45:33.230013	2.194439E-1	2.753511E-3	1.272304E-3	1.005625E-2	1.975956E-3	1.624041E-3	1.405624E-3	6.611989E-3
10/19/2017  17:45:33.231013	1.292387E+0	2.921375E-3	1.293640E-3	6.915194E-3	2.442294E-3	1.060928E-3	2.200129E-3	6.037237E-3
10/19/2017  17:45:33.232013	1.583530E+0	3.712623E-3	1.420788E-3	5.972757E-3	1.501524E-3	4.109835E-4	4.264449E-3	5.758460E-3
10/19/2017  17:45:33.233013	9.985551E-1	3.197732E-4	1.537666E-3	6.848795E-3	5.348977E-3	5.637973E-3	3.428521E-3	1.339848E-2
10/19/2017  17:45:33.234013	3.122226E-1	2.934435E-3	2.058349E-3	8.702009E-4	1.005923E-2	2.492771E-3	4.837099E-3	2.258792E-3
10/19/2017  17:45:33.235013	3.061511E-2	9.820215E-4	1.495345E-3	5.599152E-3	3.961276E-3	4.443815E-3	4.082158E-3	7.958046E-3
10/19/2017  17:45:33.236013	1.610301E-1	6.178713E-3	1.574429E-3	1.930479E-3	7.867367E-3	6.576481E-3	1.509921E-3	9.745047E-4
10/19/2017  17:45:33.237013	4.533907E-1	6.131140E-3	3.310307E-3	5.595201E-3	3.051686E-3	5.331962E-3	3.660631E-3	5.963980E-3
10/19/2017  17:45:33.238013	6.254215E-1	1.995450E-3	2.288600E-3	3.432599E-3	1.311124E-3	9.829933E-4	2.135744E-3	1.269641E-3
10/19/2017  17:45:33.239013	5.806029E-1	1.113851E-3	1.714490E-3	1.887252E-3	3.132792E-3	6.181584E-3	3.061310E-3	2.564319E-3
10/19/2017  17:45:33.240013	3.889525E-1	2.526572E-3	3.359230E-3	1.197727E-2	2.815372E-3	7.691792E-3	7.500836E-3	1.681529E-3
10/19/2017  17:45:33.241013	1.769417E-1	1.109923E-4	1.886523E-4	1.025617E-2	1.284406E-3	3.333993E-3	4.139696E-5	1.251811E-3
10/19/2017  17:45:33.242013	4.759625E-2	8.927387E-4	5.076853E-3	1.233729E-3	1.317949E-3	3.704873E-3	7.728211E-3	7.068721E-5
10/19/2017  17:45:33.243013	5.262408E-2	3.300733E-3	3.005899E-3	7.838756E-4	6.400229E-3	2.373907E-3	4.720460E-4	1.198021E-3
								
10/19/2017  17:45:33.244013	1.196855E-1	1.955886E-3	1.915501E-3	4.753154E-3	3.846430E-4	1.737778E-3	3.555473E-3	3.183278E-3
10/19/2017  17:45:33.245013	2.604283E-2	2.451692E-3	1.028920E-3	5.103340E-3	1.324894E-2	5.718069E-3	4.679736E-3	5.877415E-4
10/19/2017  17:45:33.246013	7.925324E-2	3.112033E-3	4.072084E-3	7.235193E-3	3.841996E-3	5.165402E-3	3.064748E-3	2.046258E-3
10/19/2017  17:45:33.247013	1.745263E-2	4.199925E-3	3.242425E-3	2.706832E-3	6.477506E-3	6.261650E-3	1.309402E-3	3.108282E-3
10/19/2017  17:45:33.248013	1.104729E-1	1.004869E-2	1.237587E-3	2.780597E-4	1.855247E-3	6.506797E-5	3.499460E-3	3.187003E-3
10/19/2017  17:45:33.249013	3.880703E-2	9.664065E-3	3.395075E-3	5.672468E-3	3.909543E-3	7.487403E-3	1.192773E-3	1.557045E-3
10/19/2017  17:45:33.250013	4.750998E-2	9.613351E-3	5.415381E-3	3.118176E-3	8.303298E-4	4.030335E-4	5.957955E-3	6.523843E-4
10/19/2017  17:45:33.251013	1.101043E-1	1.032152E-2	2.849504E-3	4.862283E-3	3.642934E-3	3.677857E-3	7.739650E-5	2.564683E-3
10/19/2017  17:45:33.252013	1.164896E-1	3.607754E-3	3.706689E-3	6.424309E-3	3.098547E-3	5.618201E-3	6.806717E-3	2.896328E-3
10/19/2017  17:45:33.253013	2.527562E-3	2.286588E-3	1.663726E-3	6.498235E-3	8.651640E-3	5.704535E-3	1.410213E-3	2.691283E-3
10/19/2017  17:45:33.254013	6.386615E-2	3.832802E-3	1.635752E-3	2.031304E-3	3.015081E-3	1.951444E-3	1.303057E-3	1.089211E-3
10/19/2017  17:45:33.255013	2.457993E-2	1.508528E-5	3.704274E-3	6.454156E-3	5.306250E-3	1.141900E-3	2.402459E-3	7.287053E-3
10/19/2017  17:45:33.256013	8.476969E-2	7.128413E-4	1.575887E-3	5.297241E-3	7.343663E-3	1.936402E-3	6.462380E-4	4.405937E-3
10/19/2017  17:45:33.257013	2.953966E-2	1.595755E-3	8.093938E-4	1.789262E-3	4.099949E-3	8.018875E-3	4.413901E-3	2.702094E-3
10/19/2017  17:45:33.258013	1.122530E-1	5.695192E-3	6.541128E-3	1.972105E-3	6.903291E-3	4.767846E-3	6.196390E-4	1.400913E-3
10/19/2017  17:45:33.259013	2.334579E-1	7.609375E-3	1.398769E-5	3.732301E-3	3.424365E-4	7.911182E-3	2.641732E-3	6.102381E-3
10/19/2017  17:45:33.260013	1.892914E-1	8.299112E-3	6.584164E-3	1.016509E-2	7.362199E-3	1.622733E-3	7.150794E-3	1.482434E-3
10/19/2017  17:45:33.261013	6.596519E-2	1.485686E-2	2.508966E-3	7.379744E-3	3.132492E-3	7.938793E-3	1.891843E-3	5.187604E-3
10/19/2017  17:45:33.262013	6.537493E-2	1.010123E-3	1.472368E-3	1.201185E-4	7.047428E-3	7.111478E-4	8.112252E-3	1.224615E-3
10/19/2017  17:45:33.263013	1.522885E-1	9.328433E-3	2.009860E-3	1.347517E-3	3.037612E-3	1.207077E-3	7.185033E-4	6.434647E-4
10/19/2017  17:45:33.264013	1.111093E-1	5.728233E-4	5.463857E-3	3.920163E-3	2.184092E-3	6.414462E-3	2.311040E-3	5.279269E-3
10/19/2017  17:45:33.265013	8.284977E-2	4.018215E-3	6.367011E-3	1.401819E-4	5.525147E-3	2.246572E-3	5.397878E-3	9.799909E-4
10/19/2017  17:45:33.266013	1.323852E-1	5.867203E-3	4.172087E-3	1.687633E-3	8.366482E-4	6.028933E-3	7.235695E-4	9.612101E-3
10/19/2017  17:45:33.267013	9.749833E-2	9.447776E-3	6.229967E-3	3.897324E-3	7.933222E-3	1.986465E-3	5.845600E-3	2.499153E-4
10/19/2017  17:45:33.268013	2.913817E-1	1.348357E-3	3.566650E-3	4.973878E-3	1.326295E-3	1.236382E-3	2.970342E-3	1.187266E-2
10/19/2017  17:45:33.269013	2.457961E-1	2.003782E-3	7.076325E-3	5.719549E-3	3.018261E-3	5.220098E-3	6.756195E-3	4.411926E-3
10/19/2017  17:45:33.270013	2.690055E-1	7.547466E-4	2.654641E-3	1.051445E-2	2.501845E-3	4.090499E-3	4.050169E-3	3.551814E-3
10/19/2017  17:45:33.271013	5.620976E-1	1.526677E-3	2.898939E-3	1.377302E-3	1.427700E-3	4.356953E-3	5.617409E-3	6.371683E-5
10/19/2017  17:45:33.272013	5.294840E-1	1.862688E-3	3.292923E-3	2.135043E-3	7.207389E-3	7.633109E-4	1.759763E-3	1.861331E-5
10/19/2017  17:45:33.273013	2.183485E-1	2.026313E-3	5.273910E-3	1.660238E-3	4.689609E-3	4.715217E-3	1.295192E-3	2.102082E-3
10/19/2017  17:45:33.274013	8.189457E-1	6.126218E-4	1.128051E-2	8.317663E-4	3.733690E-3	1.699314E-3	2.987366E-3	6.583755E-4
10/19/2017  17:45:33.275013	7.074011E-1	2.428866E-3	3.528389E-3	3.655609E-3	4.804375E-4	3.660689E-3	5.539949E-3	6.513641E-3
10/19/2017  17:45:33.276013	5.369153E-1	1.497847E-3	2.116366E-3	1.645965E-2	3.102709E-3	1.634112E-4	3.964582E-3	8.814902E-3
								
10/19/2017  17:45:33.277013	6.470153E-1	5.134332E-4	4.325167E-3	9.386677E-3	1.600820E-3	1.163584E-3	3.271055E-3	3.199999E-3
10/19/2017  17:45:33.278013	7.321373E-1	2.149806E-3	3.846906E-3	6.277104E-3	1.101040E-3	2.821016E-3	1.182468E-3	6.296552E-3
10/19/2017  17:45:33.279013	6.702791E-1	2.736853E-3	6.501484E-3	2.972362E-3	2.257381E-3	4.757501E-3	2.283767E-3	2.317850E-4
10/19/2017  17:45:33.280013	4.051184E-1	4.915772E-3	9.465550E-3	8.894111E-4	2.016947E-4	2.025876E-3	3.259045E-3	2.380003E-3
10/19/2017  17:45:33.281013	1.090583E-1	2.973850E-4	3.858279E-3	5.883802E-3	3.353147E-3	2.483228E-3	5.702540E-4	1.719756E-3
10/19/2017  17:45:33.282013	5.903653E-1	9.101699E-3	5.280600E-3	7.851373E-3	2.824788E-3	1.092572E-2	3.354077E-3	2.255429E-3
10/19/2017  17:45:33.283013	6.913064E-1	1.738203E-3	1.088138E-2	7.877361E-3	2.219650E-3	1.858465E-3	1.979459E-3	2.429256E-3
10/19/2017  17:45:33.284013	4.324545E-1	1.082841E-2	4.083586E-3	7.389607E-3	5.041981E-3	8.880712E-3	1.612118E-3	3.197628E-3
10/19/2017  17:45:33.285013	6.429483E-2	3.792919E-3	2.309335E-3	1.535411E-4	1.016323E-3	6.202194E-3	3.791368E-4	4.438980E-3
10/19/2017  17:45:33.286013	2.268508E-1	8.820204E-3	1.218888E-3	2.071304E-3	5.535501E-3	4.279792E-3	6.275708E-3	2.237665E-3
10/19/2017  17:45:33.287013	3.407972E-1	3.894549E-4	1.392865E-3	2.174927E-3	2.545385E-4	7.848016E-3	4.821795E-3	5.266329E-3
10/19/2017  17:45:33.288013	2.525496E-1	1.175697E-2	8.630764E-3	1.284097E-3	4.964242E-3	3.677376E-3	3.760483E-3	1.014657E-4
10/19/2017  17:45:33.289013	5.590502E-2	1.535599E-3	2.446386E-3	3.334401E-3	2.516264E-3	1.622635E-3	1.931557E-3	4.100188E-3
10/19/2017  17:45:33.290013	5.685209E-1	8.782283E-3	6.048131E-3	6.336784E-3	8.453947E-3	2.746103E-3	2.211042E-3	4.435208E-3
10/19/2017  17:45:33.291013	1.207774E+0	1.733555E-3	1.364015E-3	7.490772E-3	3.111406E-4	1.521122E-3	2.379220E-3	4.802258E-3
10/19/2017  17:45:33.292013	1.893161E+0	8.080064E-4	3.832252E-3	5.128951E-3	4.314069E-3	5.264940E-3	2.852303E-3	5.232329E-3
10/19/2017  17:45:33.293013	2.106797E+0	1.501821E-3	1.881383E-3	5.709702E-3	1.224369E-3	2.878537E-4	1.180536E-3	6.103422E-3
10/19/2017  17:45:33.294013	1.253072E+0	3.199142E-3	1.065280E-4	7.476475E-3	2.613548E-5	5.318364E-3	8.179552E-4	1.480841E-3
10/19/2017  17:45:33.295013	1.529588E-1	1.540733E-3	1.023492E-3	1.073613E-2	4.469876E-3	2.379268E-3	1.845483E-3	1.111198E-3
10/19/2017  17:45:33.296013	1.146543E+0	6.958705E-3	2.988139E-4	3.945294E-3	2.828784E-3	4.441177E-3	1.229713E-3	3.791376E-3
10/19/2017  17:45:33.297013	1.647820E+0	8.370889E-3	3.380850E-3	2.174543E-2	6.908025E-4	7.910708E-4	5.223049E-3	9.933512E-5
10/19/2017  17:45:33.298013	1.893912E+0	3.940426E-3	2.280908E-4	1.788910E-2	2.449252E-3	5.597284E-3	4.272683E-3	4.995708E-3
10/19/2017  17:45:33.299013	1.685730E+0	1.550830E-3	6.644773E-3	2.644389E-3	3.230462E-3	8.590208E-3	6.376639E-4	8.520709E-4
10/19/2017  17:45:33.300013	1.089322E+0	3.303060E-3	1.853718E-3	5.700240E-3	3.892279E-3	4.459795E-3	3.516384E-3	4.487549E-3
10/19/2017  17:45:33.301013	6.087934E-1	4.141821E-4	7.506038E-3	4.237212E-3	4.565301E-3	1.877692E-3	4.294452E-3	1.020554E-3
10/19/2017  17:45:33.302013	3.001385E-1	1.074281E-3	7.154606E-3	1.009261E-3	3.873029E-3	1.367202E-3	3.581162E-3	5.999018E-4
10/19/2017  17:45:33.303013	4.410496E-2	6.519924E-3	1.737199E-3	3.127742E-3	4.204190E-3	1.591784E-4	4.196043E-3	5.066697E-3
10/19/2017  17:45:33.304013	2.635156E-1	1.810107E-3	2.061967E-3	1.332582E-3	1.333418E-3	9.492860E-3	2.051644E-4	1.717448E-3
10/19/2017  17:45:33.305013	2.415806E-1	5.507976E-3	3.452123E-3	2.247189E-3	1.796457E-3	5.289738E-3	1.631774E-3	8.731053E-5
10/19/2017  17:45:33.306013	1.796094E-1	7.319687E-4	2.466065E-3	7.758993E-3	2.650521E-3	7.504643E-3	2.382988E-3	1.924095E-3
10/19/2017  17:45:33.307013	2.149087E-1	6.578838E-3	4.033835E-3	4.000032E-4	9.080218E-3	5.118566E-3	9.516636E-4	6.487149E-3
10/19/2017  17:45:33.308013	3.018450E-1	4.830276E-3	3.947027E-3	7.132285E-3	4.861040E-3	2.614956E-3	1.647477E-3	2.094497E-3
10/19/2017  17:45:33.309013	3.562855E-1	4.845496E-5	2.905909E-3	4.345295E-3	1.061715E-2	8.686135E-3	6.673162E-3	2.635838E-3
								
10/19/2017  17:45:33.310013	3.734886E-1	2.022772E-3	3.343831E-3	1.004731E-3	9.458475E-3	6.703352E-3	2.869732E-3	2.585726E-3
10/19/2017  17:45:33.311013	4.726621E-1	1.832119E-3	1.239648E-3	3.049474E-3	5.958125E-3	3.452058E-3	4.882050E-3	3.275005E-3
10/19/2017  17:45:33.312013	6.199094E-1	1.197331E-3	2.558180E-3	1.606501E-3	3.590887E-3	3.746612E-3	5.203190E-3	3.708779E-3
10/19/2017  17:45:33.313013	6.132526E-1	5.744353E-4	1.141738E-3	2.362629E-3	6.687516E-3	2.363575E-3	3.920398E-4	6.235904E-3
10/19/2017  17:45:33.314013	5.976321E-1	8.453044E-4	1.073104E-2	7.748462E-3	2.795956E-3	3.500712E-3	6.326695E-5	5.434624E-4
10/19/2017  17:45:33.315013	7.517491E-1	1.689211E-3	1.089514E-2	4.809691E-3	1.260150E-3	4.224664E-3	4.022939E-3	6.746310E-3
10/19/2017  17:45:33.316013	6.319327E-1	1.849659E-3	1.292283E-3	4.083431E-3	3.200189E-4	1.543049E-3	2.597558E-3	5.186148E-3
10/19/2017  17:45:33.317013	3.373984E-2	3.720563E-3	8.097796E-3	6.537541E-4	3.313222E-3	6.073468E-3	5.756733E-3	3.090521E-3
10/19/2017  17:45:33.318013	4.045200E-1	1.555555E-3	7.577262E-3	6.095202E-3	1.365714E-4	3.372930E-3	7.611852E-3	4.348066E-3
10/19/2017  17:45:33.319013	4.663039E-1	6.594715E-3	3.676966E-3	3.932611E-3	6.203812E-3	1.113903E-3	3.808349E-4	1.433070E-3
10/19/2017  17:45:33.320013	4.912383E-1	5.402270E-3	7.177166E-5	5.506504E-3	1.820487E-3	2.514055E-3	3.467104E-3	1.294420E-3
10/19/2017  17:45:33.321013	3.504320E-1	4.808236E-3	2.810713E-3	4.640437E-3	6.233604E-3	2.390059E-4	1.497243E-3	2.318273E-3
10/19/2017  17:45:33.322013	2.204540E-1	4.566178E-3	4.805572E-3	1.005179E-3	3.096015E-3	2.009275E-3	4.050861E-3	4.817882E-4
10/19/2017  17:45:33.323013	6.145037E-1	5.605190E-3	2.363997E-3	3.739761E-3	3.997349E-3	7.013042E-3	2.592747E-3	8.921268E-4
10/19/2017  17:45:33.324013	9.539165E-1	1.053165E-2	6.240524E-3	5.093393E-3	6.125119E-4	3.212718E-3	3.187080E-3	5.115517E-3
10/19/2017  17:45:33.325013	6.002445E-1	3.340710E-3	8.117931E-5	3.377221E-3	1.676435E-3	1.325771E-2	7.050811E-4	3.851128E-3
10/19/2017  17:45:33.326013	1.504508E-1	5.974906E-3	1.521236E-3	7.932242E-3	8.244943E-4	2.787165E-3	4.386353E-3	4.071327E-4
10/19/2017  17:45:33.327013	8.509586E-2	2.591880E-3	3.323853E-3	1.763204E-3	5.349315E-3	4.080154E-3	2.829313E-3	8.504401E-4
10/19/2017  17:45:33.328013	8.596827E-2	4.194923E-3	6.996184E-5	7.212481E-3	2.417719E-4	3.537961E-3	3.216393E-3	2.648198E-4
10/19/2017  17:45:33.329013	5.018594E-2	6.703811E-4	3.915325E-3	4.649318E-3	1.708660E-3	1.328366E-3	4.501145E-3	6.791571E-3
10/19/2017  17:45:33.330013	1.791877E-1	4.393541E-3	1.307366E-3	1.311855E-2	8.145412E-3	5.101173E-3	4.592007E-4	1.192765E-2
10/19/2017  17:45:33.331013	3.358226E-1	3.578194E-3	7.646705E-4	2.825195E-3	6.084344E-3	1.215424E-3	7.608359E-3	5.164728E-3
10/19/2017  17:45:33.332013	2.134536E-1	3.375665E-4	3.076342E-3	2.410944E-3	8.364766E-3	2.087196E-3	4.453809E-3	3.125250E-3
10/19/2017  17:45:33.333013	2.384805E-1	4.971547E-3	6.116441E-3	8.227690E-4	7.050051E-3	8.082141E-3	7.782386E-4	3.626822E-3
10/19/2017  17:45:33.334013	9.111797E-1	4.421215E-3	8.549923E-3	3.567280E-3	2.861619E-3	6.405427E-3	3.110738E-3	4.210141E-3
10/19/2017  17:45:33.335013	1.662259E+0	2.604166E-3	4.352372E-3	1.454394E-3	1.192662E-3	2.791450E-3	5.136743E-3	3.525104E-3
10/19/2017  17:45:33.336013	2.032003E+0	6.821918E-3	3.323405E-3	6.497182E-4	3.903933E-3	2.198932E-3	1.540231E-3	2.788899E-3
10/19/2017  17:45:33.337013	1.475989E+0	4.632504E-3	5.310459E-3	1.008478E-2	4.225484E-3	7.840158E-3	1.065526E-2	2.147712E-3
10/19/2017  17:45:33.338013	3.233864E-1	5.999754E-4	3.758031E-3	9.791195E-3	2.753223E-3	3.000155E-3	3.421548E-4	5.087273E-3
10/19/2017  17:45:33.339013	5.208158E-1	6.487972E-4	9.523918E-3	3.161605E-3	3.718331E-3	9.286393E-3	1.560271E-2	2.665279E-3
10/19/2017  17:45:33.340013	7.419300E-1	1.091802E-3	2.609392E-3	5.325430E-3	2.662256E-3	3.199842E-3	7.359021E-3	4.044851E-3
10/19/2017  17:45:33.341013	7.555488E-1	9.279368E-4	6.760807E-3	6.684567E-4	5.381026E-3	8.176234E-4	7.962686E-3	1.904287E-3
10/19/2017  17:45:33.342013	1.022257E+0	3.759733E-3	5.746843E-4	3.042491E-3	2.678269E-3	6.390119E-3	5.193337E-3	2.509209E-3
								
10/19/2017  17:45:33.343013	1.130711E+0	2.440318E-3	8.349526E-4	7.313543E-3	1.359606E-3	4.477488E-3	5.479568E-4	9.523841E-4
10/19/2017  17:45:33.344013	5.380101E-1	7.296412E-3	1.152576E-3	1.412882E-3	2.434331E-3	1.108410E-2	1.696592E-3	1.589668E-3
10/19/2017  17:45:33.345013	7.814814E-2	5.147892E-4	6.204170E-4	6.177034E-4	3.262066E-3	7.777867E-3	1.593213E-3	3.840847E-4
10/19/2017  17:45:33.346013	1.172537E-1	5.335697E-3	1.851356E-3	4.396442E-3	3.539999E-3	1.096748E-2	1.021306E-3	3.227294E-3
10/19/2017  17:45:33.347013	1.646168E-1	1.731281E-3	2.238200E-3	2.783431E-3	6.678647E-4	5.660166E-3	2.576736E-3	1.264889E-3
10/19/2017  17:45:33.348013	6.895601E-1	2.318666E-3	6.376626E-3	4.986534E-3	2.168536E-3	8.080847E-3	4.987833E-3	2.536655E-3
10/19/2017  17:45:33.349013	1.161091E+0	6.720459E-3	7.079278E-3	4.356417E-3	4.179892E-3	1.342040E-3	3.109556E-3	1.780779E-3
10/19/2017  17:45:33.350013	1.043690E+0	7.164305E-3	3.721812E-3	3.292777E-3	7.592761E-3	3.241652E-3	4.929191E-3	8.129988E-4
10/19/2017  17:45:33.351013	5.405291E-1	2.452761E-4	3.170332E-3	3.521191E-3	3.408552E-3	5.336367E-3	6.910676E-3	4.934231E-4
10/19/2017  17:45:33.352013	3.964264E-2	2.540539E-3	7.657126E-3	2.090556E-3	5.657050E-3	3.432609E-3	1.278613E-4	2.922314E-3
10/19/2017  17:45:33.353013	8.054735E-1	1.395094E-3	5.277552E-3	1.964582E-3	3.729542E-3	4.051526E-3	6.855211E-4	9.150672E-4
10/19/2017  17:45:33.354013	1.444477E+0	9.140227E-4	5.978600E-3	6.689223E-3	1.593234E-3	1.588311E-3	4.460011E-3	2.200926E-3
10/19/2017  17:45:33.355013	1.382947E+0	3.288335E-3	7.137019E-3	2.403395E-3	6.287527E-3	4.068881E-3	7.435373E-4	6.248043E-4
10/19/2017  17:45:33.356013	8.319472E-1	5.876539E-3	1.851723E-3	9.423540E-3	9.458004E-4	4.312558E-3	5.762241E-3	3.330012E-3
10/19/2017  17:45:33.357013	4.272931E-1	1.900480E-3	2.812125E-3	8.424278E-3	6.395150E-3	2.071747E-3	7.000085E-4	1.833522E-3
10/19/2017  17:45:33.358013	1.933030E-1	6.234502E-3	6.013332E-3	1.440058E-3	8.496273E-4	3.647404E-3	5.768093E-3	4.645166E-3
10/19/2017  17:45:33.359013	1.458467E-1	2.320495E-3	7.528253E-4	2.466791E-3	3.316744E-3	3.762131E-3	9.938122E-4	4.631808E-4
10/19/2017  17:45:33.360013	4.537774E-1	4.903261E-3	5.328586E-3	4.632803E-4	6.357464E-4	4.612814E-3	5.640006E-3	2.438947E-4
10/19/2017  17:45:33.361013	5.012119E-1	3.772995E-3	1.566576E-4	5.662947E-4	1.597730E-3	4.177437E-3	4.977666E-3	9.238234E-6
10/19/2017  17:45:33.362013	3.285365E-1	5.737958E-3	1.613224E-3	3.985284E-3	5.339303E-3	1.577024E-4	1.646055E-3	5.431575E-3
10/19/2017  17:45:33.363013	1.411971E-2	4.792848E-4	6.950015E-3	4.833052E-4	6.248404E-4	6.824218E-3	2.803518E-4	6.867643E-3
10/19/2017  17:45:33.364013	4.436498E-1	3.922933E-3	7.034797E-3	8.751081E-3	1.599786E-3	1.176505E-3	4.793671E-4	9.917208E-4
10/19/2017  17:45:33.365013	8.715503E-1	1.617617E-3	3.494575E-4	4.241722E-3	8.751612E-4	1.135370E-4	3.574605E-5	7.516943E-3
10/19/2017  17:45:33.366013	1.648150E+0	5.370415E-3	4.745086E-4	2.611131E-4	5.185123E-3	2.887188E-3	1.089289E-3	6.799226E-3
10/19/2017  17:45:33.367013	2.596681E+0	8.383768E-3	1.715796E-3	7.491437E-3	4.544980E-3	3.007807E-3	1.205106E-4	3.229712E-3
10/19/2017  17:45:33.368013	1.831029E+0	4.811691E-4	2.243797E-3	5.905619E-3	1.390404E-4	2.863091E-3	2.007341E-3	7.786911E-4
10/19/2017  17:45:33.369013	1.150568E+0	4.547605E-3	1.107203E-4	3.829208E-3	2.602516E-3	3.043556E-3	2.833236E-3	3.222952E-3
10/19/2017  17:45:33.370013	3.048758E+0	2.052015E-3	1.017255E-3	6.215018E-3	2.117067E-3	3.521375E-3	6.257785E-3	2.712233E-3
10/19/2017  17:45:33.371013	2.358442E+0	3.753168E-3	7.439793E-3	7.956103E-3	5.364013E-3	6.683356E-3	1.392232E-4	5.865055E-4
10/19/2017  17:45:33.372013	1.797365E+0	2.446639E-3	7.537987E-3	5.104606E-3	5.601347E-3	4.682601E-3	1.418793E-3	3.451720E-3
10/19/2017  17:45:33.373013	2.000986E+0	1.928655E-3	2.441584E-3	6.680008E-3	2.427363E-3	5.129004E-3	2.935822E-3	3.003409E-3
10/19/2017  17:45:33.374013	1.313411E+0	1.329086E-3	2.826694E-3	1.676454E-3	2.984923E-3	4.103069E-3	2.785879E-3	7.318047E-3
10/19/2017  17:45:33.375013	3.361348E-1	4.712254E-3	2.745758E-3	1.283362E-2	2.227591E-3	6.924771E-4	7.643040E-3	1.174814E-2
								
10/19/2017  17:45:33.376013	5.284833E-2	1.434885E-3	3.776208E-3	3.313670E-3	7.482339E-3	1.461744E-3	9.724098E-5	1.597997E-4
10/19/2017  17:45:33.377013	1.675449E-1	4.060083E-3	1.897312E-3	7.954021E-3	6.229676E-5	4.630850E-3	4.007869E-3	7.723993E-3
10/19/2017  17:45:33.378013	5.123618E-1	7.523021E-3	4.047080E-3	2.008466E-3	5.034613E-3	4.557289E-4	2.373107E-3	1.292850E-3
10/19/2017  17:45:33.379013	5.071661E-1	6.181776E-3	5.528959E-3	4.362073E-3	1.353564E-3	2.686991E-3	4.917846E-3	3.572515E-3
10/19/2017  17:45:33.380013	1.064915E-1	7.810440E-3	3.153547E-3	4.867996E-3	3.368919E-3	5.571299E-3	1.257390E-3	1.093766E-3
10/19/2017  17:45:33.381013	3.752481E-1	6.398787E-3	5.122637E-3	2.070675E-3	1.427373E-3	3.471394E-3	7.175873E-3	1.251740E-3
10/19/2017  17:45:33.382013	6.093701E-2	4.956551E-3	1.455525E-3	1.128670E-3	2.363095E-3	6.972775E-3	5.810783E-3	4.923251E-3
10/19/2017  17:45:33.383013	1.524029E+0	9.723647E-3	7.678747E-5	6.862535E-3	1.058479E-3	1.745502E-3	2.484421E-4	6.946622E-3
10/19/2017  17:45:33.384013	3.154299E+0	5.294053E-3	5.070220E-3	5.497953E-3	6.585905E-4	7.906170E-3	4.157711E-3	2.376636E-3
10/19/2017  17:45:33.385013	3.871991E+0	4.262022E-3	5.349810E-4	1.072411E-3	3.495936E-3	7.290684E-4	1.231212E-3	7.639476E-3
10/19/2017  17:45:33.386013	3.886270E+0	6.500316E-3	5.715129E-3	8.444398E-3	7.547939E-3	5.262274E-3	2.890241E-3	6.761574E-3
10/19/2017  17:45:33.387013	2.030083E+0	2.276378E-4	7.118681E-4	1.103481E-2	4.183712E-3	1.245634E-3	1.379081E-3	1.393656E-2
10/19/2017  17:45:33.388013	1.706205E+0	3.062970E-3	1.515309E-3	8.361977E-3	6.074463E-4	4.552959E-4	7.650364E-3	1.258066E-3
10/19/2017  17:45:33.389013	3.027468E+0	4.538947E-4	5.285021E-3	1.616304E-2	1.700141E-3	4.612221E-3	6.175935E-3	9.652579E-3
10/19/2017  17:45:33.390013	8.661349E-1	3.226168E-3	1.120779E-3	4.693869E-3	4.300584E-3	1.073466E-3	1.535214E-4	1.342999E-3
10/19/2017  17:45:33.391013	9.089844E-2	3.597960E-3	1.783960E-3	4.248059E-3	6.664585E-3	2.062148E-3	6.739856E-3	2.611366E-3
10/19/2017  17:45:33.392013	1.879807E+0	3.110657E-3	6.855126E-3	7.978693E-3	2.300870E-3	6.785190E-3	9.091831E-3	3.471748E-3
10/19/2017  17:45:33.393013	2.930761E+0	1.991801E-3	3.921125E-3	1.149385E-4	5.473989E-4	1.525559E-3	4.079185E-3	8.387536E-3
10/19/2017  17:45:33.394013	2.655861E+0	1.162617E-3	5.485062E-3	1.846965E-2	3.175820E-3	9.558807E-3	8.456581E-4	4.688508E-3
10/19/2017  17:45:33.395013	2.293517E+0	1.128798E-3	1.248656E-3	1.411272E-2	1.598700E-3	1.238502E-3	2.028783E-3	4.378733E-3
10/19/2017  17:45:33.396013	1.611789E+0	4.699177E-4	2.481455E-3	9.572299E-3	2.598191E-3	6.600330E-3	4.656785E-3	5.336371E-3
10/19/2017  17:45:33.397013	3.652141E-1	1.795948E-3	1.040450E-2	9.945545E-3	1.391683E-4	1.489331E-3	2.461213E-3	3.235124E-3
10/19/2017  17:45:33.398013	7.058638E-1	2.424564E-3	6.567892E-3	5.027771E-3	6.982414E-4	6.802162E-3	9.784330E-3	3.130808E-3
10/19/2017  17:45:33.399013	1.195774E+0	2.543661E-3	4.554884E-3	1.839514E-4	7.216902E-4	8.923537E-3	8.787032E-3	5.121388E-3
10/19/2017  17:45:33.400013	1.264698E+0	7.889312E-3	4.598318E-4	8.660225E-3	3.513624E-3	5.702025E-4	5.348246E-3	4.393736E-3
10/19/2017  17:45:33.401013	9.997565E-1	7.139410E-3	5.866100E-4	1.779664E-3	2.377007E-3	1.173481E-2	1.695730E-4	1.009440E-3
10/19/2017  17:45:33.402013	7.139987E-1	5.798407E-3	5.452693E-3	8.115015E-4	5.605505E-3	4.137124E-3	3.348486E-3	3.320135E-3
10/19/2017  17:45:33.403013	7.564226E-1	5.717094E-3	1.630170E-3	1.845285E-3	5.221717E-3	9.472078E-3	9.186029E-4	1.006747E-3
10/19/2017  17:45:33.404013	8.550330E-1	8.695122E-3	3.342367E-3	3.445446E-3	2.906967E-5	5.165617E-3	2.226535E-3	3.432487E-3
10/19/2017  17:45:33.405013	7.488825E-1	4.060786E-3	4.651714E-3	1.748145E-4	7.133693E-4	4.301995E-3	3.476886E-3	2.379389E-3
10/19/2017  17:45:33.406013	6.647417E-1	1.066102E-2	1.700913E-3	9.435451E-3	2.487979E-3	5.009789E-3	4.728948E-3	4.737768E-3
10/19/2017  17:45:33.407013	6.658033E-1	5.125231E-3	2.805714E-3	1.145536E-3	9.985080E-6	4.722852E-3	1.810831E-3	7.019179E-3
10/19/2017  17:45:33.408013	5.392541E-1	1.392170E-3	3.107620E-3	8.193972E-3	8.854510E-3	1.232096E-3	1.061533E-3	1.072630E-3
								
10/19/2017  17:45:33.409013	2.715892E-1	6.141200E-3	2.675021E-3	9.617443E-4	5.625812E-3	5.340700E-3	1.506023E-3	5.130562E-3
10/19/2017  17:45:33.410013	5.193680E-2	4.117751E-3	2.980763E-3	6.171691E-5	2.724509E-3	8.726642E-4	3.555866E-3	6.232382E-4
10/19/2017  17:45:33.411013	1.487830E-1	2.917381E-3	1.291350E-3	6.965675E-3	2.645804E-3	6.106353E-3	4.650396E-3	1.724093E-4
10/19/2017  17:45:33.412013	5.915363E-1	3.290342E-3	4.241854E-3	3.323526E-3	5.278096E-3	1.537592E-4	7.430106E-4	4.804262E-3
10/19/2017  17:45:33.413013	9.151431E-1	3.242065E-3	1.822525E-3	5.156328E-4	3.840385E-3	5.966774E-3	8.476814E-4	1.219577E-5
10/19/2017  17:45:33.414013	3.878724E-1	8.096364E-3	3.724389E-3	2.349054E-3	5.566473E-3	2.302562E-3	7.945876E-4	4.077585E-3
10/19/2017  17:45:33.415013	4.589392E-1	4.988862E-3	1.454542E-3	1.181348E-2	1.904492E-3	1.536130E-3	7.996757E-3	1.780278E-3
10/19/2017  17:45:33.416013	6.840441E-1	3.786780E-3	7.009714E-4	1.062943E-2	6.545662E-3	1.644976E-3	9.722651E-3	7.076884E-4
10/19/2017  17:45:33.417013	9.104450E-1	1.754558E-3	2.096412E-3	1.327163E-3	5.730756E-3	2.320498E-3	2.564806E-3	6.536635E-3
10/19/2017  17:45:33.418013	1.366612E+0	4.375288E-3	7.338271E-4	1.043972E-3	5.280868E-3	1.357672E-3	8.532438E-3	1.231746E-3
10/19/2017  17:45:33.419013	4.364663E-1	7.061761E-4	6.741698E-3	4.686433E-3	1.887994E-3	1.777305E-3	8.701383E-4	8.964426E-3
10/19/2017  17:45:33.420013	1.531562E+0	2.681177E-3	6.041035E-3	5.523371E-3	9.828246E-3	1.306955E-4	2.801816E-3	4.365752E-4
10/19/2017  17:45:33.421013	1.967681E+0	3.304043E-3	3.746639E-4	6.683365E-3	2.286125E-3	1.473443E-3	1.614057E-3	5.758030E-3
10/19/2017  17:45:33.422013	1.104398E+0	3.930365E-3	2.718542E-5	1.499371E-3	8.438960E-3	3.221733E-3	3.152602E-3	8.603153E-4
10/19/2017  17:45:33.423013	8.803075E-1	3.760207E-4	7.823396E-5	3.414619E-3	2.912961E-3	3.090067E-3	9.085440E-4	1.260182E-3
10/19/2017  17:45:33.424013	9.484383E-1	4.362735E-3	2.900069E-3	7.021318E-3	8.859712E-4	1.681657E-3	8.667347E-4	3.987691E-3
10/19/2017  17:45:33.425013	5.091986E-1	2.680304E-3	9.876852E-4	3.195643E-3	9.086971E-4	1.433607E-3	3.626621E-3	6.025615E-3
10/19/2017  17:45:33.426013	1.126554E-1	2.206571E-3	3.775112E-3	1.675346E-3	1.946108E-3	3.448312E-3	4.495967E-3	8.546980E-4
10/19/2017  17:45:33.427013	1.961438E-2	4.335477E-3	3.978071E-3	7.039039E-3	5.180406E-4	2.124939E-3	9.822801E-4	4.514669E-3
10/19/2017  17:45:33.428013	1.131388E-1	2.619158E-3	7.341182E-3	2.431023E-3	5.463286E-3	7.112809E-4	5.714075E-3	4.275130E-3
10/19/2017  17:45:33.429013	2.725260E-1	7.273661E-3	2.659087E-4	6.810995E-3	1.509202E-3	3.096445E-3	2.969857E-3	7.376152E-3
10/19/2017  17:45:33.430013	3.294092E-1	2.836155E-3	1.263282E-3	6.986321E-3	5.536639E-3	3.332570E-3	2.462269E-3	3.587547E-3
10/19/2017  17:45:33.431013	3.507562E-1	5.996796E-3	5.799824E-3	9.023388E-3	2.571604E-3	4.401701E-3	4.674635E-3	9.910355E-3
10/19/2017  17:45:33.432013	2.797269E-1	2.316693E-5	5.283932E-3	9.410937E-4	4.033473E-3	3.722468E-3	3.249920E-3	4.445843E-3
10/19/2017  17:45:33.433013	9.412453E-2	1.466904E-3	9.499025E-4	2.247631E-3	1.271133E-3	3.782159E-4	1.668305E-3	6.092123E-4
10/19/2017  17:45:33.434013	4.753353E-2	1.039828E-3	4.826847E-4	2.098561E-3	8.189454E-4	4.597978E-3	7.532353E-3	1.042285E-3
10/19/2017  17:45:33.435013	3.105382E-1	8.494873E-3	4.997712E-3	4.743078E-3	2.256837E-3	6.784207E-3	2.402521E-3	1.631116E-3
10/19/2017  17:45:33.436013	6.224537E-1	8.251216E-3	5.084472E-3	4.434648E-3	2.966236E-3	8.151579E-3	1.011869E-2	2.908159E-3
10/19/2017  17:45:33.437013	3.473786E-2	3.316253E-3	3.757584E-3	1.037096E-3	1.226646E-3	9.978909E-3	5.126223E-3	3.837110E-4
10/19/2017  17:45:33.438013	1.313988E+0	4.271431E-3	2.352948E-3	5.243991E-4	3.041044E-3	1.016375E-2	9.249259E-3	6.033234E-4
10/19/2017  17:45:33.439013	1.325588E+0	3.851062E-3	9.135956E-3	5.974943E-3	3.960998E-3	4.273140E-3	4.034755E-3	5.280562E-4
10/19/2017  17:45:33.440013	1.204419E+0	2.511349E-3	6.720416E-3	7.340400E-3	5.814024E-3	3.241285E-3	6.927494E-3	5.377726E-3
10/19/2017  17:45:33.441013	3.079762E+0	1.725881E-3	5.031491E-3	5.613225E-3	5.054879E-3	2.983643E-3	2.481270E-3	3.694796E-3
								
10/19/2017  17:45:33.442013	4.159809E+0	2.824663E-3	3.206568E-3	4.424634E-3	5.097697E-3	8.644818E-3	3.166681E-4	7.056306E-3
10/19/2017  17:45:33.443013	1.587881E+0	2.542471E-3	6.593372E-3	1.911969E-3	2.992799E-3	2.006957E-3	4.608325E-3	7.089335E-3
10/19/2017  17:45:33.444013	1.968259E+0	6.530488E-3	5.272050E-3	5.073242E-3	3.147715E-3	1.073337E-2	8.295496E-4	3.915111E-3
10/19/2017  17:45:33.445013	3.575785E+0	5.036851E-3	2.985255E-3	9.152942E-3	6.209023E-3	1.807889E-3	8.311267E-3	1.766276E-3
10/19/2017  17:45:33.446013	3.347505E+0	4.617678E-3	2.012696E-3	4.393435E-3	1.130397E-2	7.799185E-3	6.868287E-4	6.290620E-3
10/19/2017  17:45:33.447013	1.941995E+0	8.000419E-4	3.316918E-3	1.549735E-4	1.544771E-2	4.210866E-3	6.011574E-3	1.072206E-3
10/19/2017  17:45:33.448013	7.830961E-1	7.089674E-3	3.456731E-3	4.199535E-4	5.881940E-3	5.222979E-3	8.232070E-4	5.430826E-3
10/19/2017  17:45:33.449013	1.234795E+0	4.310810E-4	1.158824E-2	2.572950E-3	1.236376E-2	6.392514E-3	3.164673E-3	3.719391E-3
10/19/2017  17:45:33.450013	1.939531E+0	4.937725E-3	3.747372E-3	7.682388E-4	1.066660E-4	3.426875E-3	1.936858E-3	2.056718E-3
10/19/2017  17:45:33.451013	1.250263E+0	6.678815E-3	1.750231E-3	8.525148E-3	2.216205E-4	7.668872E-3	3.437557E-3	5.742726E-3
10/19/2017  17:45:33.452013	1.280956E-1	9.430060E-3	5.814423E-3	6.264603E-3	5.731690E-3	6.555773E-3	7.511044E-3	3.029914E-3
10/19/2017  17:45:33.453013	1.770754E-1	2.231109E-3	2.475490E-3	7.736892E-3	7.250237E-4	3.070188E-5	5.339605E-3	9.818184E-3
10/19/2017  17:45:33.454013	2.503586E-1	3.076785E-3	7.848706E-3	7.048330E-3	3.175888E-3	2.517015E-3	8.794137E-3	1.568267E-3
10/19/2017  17:45:33.455013	8.506533E-1	3.903955E-3	2.583350E-4	2.349782E-3	4.632383E-3	3.465315E-4	5.676465E-3	4.120296E-3
10/19/2017  17:45:33.456013	1.531850E+0	1.626843E-3	8.357220E-3	2.653789E-3	1.700451E-3	4.761081E-3	6.108943E-3	6.061445E-3
10/19/2017  17:45:33.457013	1.769281E+0	7.311975E-3	4.874587E-3	7.303162E-3	9.692150E-3	6.102369E-3	4.891159E-3	5.691337E-4
10/19/2017  17:45:33.458013	1.627549E+0	2.084584E-3	1.261572E-2	3.059669E-3	6.773254E-3	3.204285E-3	8.998098E-4	1.152738E-2
10/19/2017  17:45:33.459013	1.081077E+0	3.556050E-3	1.912029E-3	7.166575E-3	3.487478E-3	1.349178E-3	4.714907E-3	1.594267E-3
10/19/2017  17:45:33.460013	1.349317E-1	6.913098E-3	7.558900E-4	4.436359E-4	1.225415E-4	4.778256E-3	3.217404E-3	5.243379E-3
10/19/2017  17:45:33.461013	4.667154E-1	5.041505E-3	4.938073E-3	5.670094E-4	4.735929E-3	3.425109E-3	4.695790E-3	4.557889E-3
10/19/2017  17:45:33.462013	3.536531E-2	1.067642E-2	3.847830E-4	5.196223E-3	5.660840E-3	5.309061E-3	3.966606E-3	5.708336E-3
10/19/2017  17:45:33.463013	5.675136E-1	1.895705E-3	5.629582E-3	1.555384E-3	1.053004E-2	1.075445E-2	2.217273E-3	3.165705E-3
10/19/2017  17:45:33.464013	1.289917E-1	5.474734E-3	1.061610E-3	4.953241E-3	5.057605E-3	5.666498E-3	3.361006E-3	2.931948E-3
10/19/2017  17:45:33.465013	7.400038E-1	2.465071E-3	3.971027E-4	2.666757E-3	1.414448E-2	3.754302E-3	4.013119E-3	3.384459E-4
10/19/2017  17:45:33.466013	7.594617E-1	9.025122E-5	3.712964E-3	7.862473E-4	3.174067E-4	1.009458E-3	9.216458E-3	4.036772E-3
10/19/2017  17:45:33.467013	3.166882E-2	6.186033E-3	1.676764E-3	3.853547E-3	9.437779E-3	4.528687E-3	1.191005E-3	4.259425E-3
10/19/2017  17:45:33.468013	4.807739E-1	1.303673E-4	7.698377E-3	6.768896E-3	1.398194E-3	6.358751E-4	9.739496E-3	1.730749E-3
10/19/2017  17:45:33.469013	4.848759E-1	4.641271E-3	2.631878E-4	4.001051E-3	2.285227E-3	4.070993E-3	5.089011E-3	2.114901E-3
10/19/2017  17:45:33.470013	5.470310E-1	1.320206E-3	4.679076E-3	1.812653E-2	1.034303E-3	1.149827E-3	8.582868E-4	6.556764E-3
10/19/2017  17:45:33.471013	8.179790E-1	6.063269E-4	4.403820E-3	1.199135E-2	1.752741E-3	1.034755E-3	4.693358E-3	4.550578E-3
10/19/2017  17:45:33.472013	3.691992E-1	4.576367E-3	5.120579E-3	1.372905E-2	2.744694E-4	9.642299E-3	4.302227E-3	1.069677E-2
10/19/2017  17:45:33.473013	1.064360E+0	4.861822E-3	2.805989E-3	9.794233E-3	7.463991E-3	4.354572E-3	2.365492E-3	1.290378E-3
10/19/2017  17:45:33.474013	1.729875E+0	4.386436E-3	1.494235E-3	3.521175E-3	3.982381E-4	5.020957E-3	6.714356E-4	6.137745E-3
								
10/19/2017  17:45:33.475013	8.011475E-1	1.042537E-2	4.153444E-3	4.775944E-3	8.345459E-3	2.206270E-3	3.316423E-3	4.432943E-3
10/19/2017  17:45:33.476013	1.328488E-1	7.423023E-3	1.088647E-2	8.260862E-3	2.658397E-4	5.627696E-3	4.589734E-3	7.419090E-3
10/19/2017  17:45:33.477013	3.629616E-1	5.559721E-3	8.938814E-4	7.641133E-4	6.057633E-3	4.814489E-3	8.058096E-3	1.378250E-3
10/19/2017  17:45:33.478013	9.674398E-2	1.966541E-3	9.623819E-3	4.923147E-4	1.646294E-3	1.177572E-3	1.631580E-3	7.468357E-4
10/19/2017  17:45:33.479013	5.091369E-1	2.561144E-3	1.018635E-3	1.183981E-3	3.077377E-3	8.953857E-3	2.082737E-3	5.842970E-4
10/19/2017  17:45:33.480013	4.438503E-1	4.265494E-3	6.075694E-3	1.066669E-2	1.868740E-3	2.184161E-3	6.382352E-3	2.655776E-3
10/19/2017  17:45:33.481013	1.318638E-1	7.124655E-3	6.557449E-4	4.880006E-3	1.381037E-3	1.320019E-2	3.486830E-3	3.366688E-3
10/19/2017  17:45:33.482013	1.093181E-1	6.286612E-3	3.571364E-3	9.805949E-3	1.195790E-3	2.813824E-3	2.500963E-3	4.324223E-3
10/19/2017  17:45:33.483013	1.107117E-1	4.454009E-3	1.163252E-3	2.434592E-3	2.955270E-4	4.554510E-3	1.208365E-3	4.689727E-3
10/19/2017  17:45:33.484013	5.604462E-2	5.324856E-3	1.735275E-3	1.050024E-2	5.003571E-3	2.865109E-4	3.211778E-3	4.159252E-4
10/19/2017  17:45:33.485013	3.900814E-2	8.924488E-3	9.277990E-4	5.127860E-3	1.071858E-3	1.598632E-3	1.097935E-3	2.955915E-3
10/19/2017  17:45:33.486013	1.423448E-1	1.897843E-3	6.073527E-4	1.455755E-3	8.902363E-3	1.929914E-3	2.613671E-3	1.686051E-3
10/19/2017  17:45:33.487013	5.794865E-1	3.999739E-3	4.652809E-3	3.531192E-3	4.117599E-3	4.205657E-3	1.714745E-3	3.793238E-3
10/19/2017  17:45:33.488013	9.392477E-1	5.861448E-3	2.913659E-3	1.144415E-3	6.867658E-3	1.922449E-3	1.780365E-3	2.299469E-3
10/19/2017  17:45:33.489013	7.692431E-1	3.619321E-3	6.493634E-3	1.084388E-3	6.877950E-3	4.133776E-3	2.507656E-3	8.430591E-4
10/19/2017  17:45:33.490013	2.295026E-1	4.277267E-3	2.114350E-3	3.157868E-3	3.959361E-3	1.183652E-4	2.466517E-3	4.828407E-3
10/19/2017  17:45:33.491013	1.594980E+0	3.410506E-4	6.596068E-3	1.444425E-2	2.443403E-5	5.764824E-3	1.409426E-3	7.799167E-3
10/19/2017  17:45:33.492013	1.872728E+0	2.527132E-3	2.073750E-3	7.191718E-3	6.031794E-3	8.774886E-4	4.416540E-3	1.152490E-3
10/19/2017  17:45:33.493013	6.830483E-1	2.137283E-3	1.659613E-3	8.956960E-3	1.803482E-3	1.154079E-2	3.558027E-3	1.003028E-3
10/19/2017  17:45:33.494013	5.182807E-1	6.352399E-3	7.193764E-4	3.099820E-3	4.331478E-3	5.691139E-3	3.725928E-3	4.208823E-3
10/19/2017  17:45:33.495013	7.971013E-1	1.225467E-3	8.533603E-4	3.477872E-3	2.751523E-4	6.000519E-3	3.650311E-5	3.282300E-3
10/19/2017  17:45:33.496013	5.014758E-1	6.836755E-3	2.872306E-3	2.070307E-3	3.612626E-3	3.151954E-3	5.539057E-3	6.442810E-4
10/19/2017  17:45:33.497013	3.117188E-1	5.410790E-4	3.384324E-4	3.134292E-4	1.976570E-3	1.315357E-2	1.026369E-3	2.499748E-3
10/19/2017  17:45:33.498013	3.947082E-1	4.020789E-3	9.108126E-3	1.490808E-3	2.286544E-3	4.116041E-4	7.272762E-3	5.344661E-3
10/19/2017  17:45:33.499013	2.417831E-1	1.456777E-3	5.332030E-3	5.617118E-3	3.127400E-3	1.197906E-2	3.470631E-5	3.462136E-3
10/19/2017  17:45:33.500013	6.460337E-2	4.152171E-4	2.662539E-3	3.998398E-4	2.987398E-3	1.056019E-2	2.903266E-3	1.466351E-3
10/19/2017  17:45:33.501013	3.010175E-2	6.349510E-3	4.984310E-4	8.342678E-3	7.027466E-4	6.431870E-3	1.674561E-4	1.389801E-3
10/19/2017  17:45:33.502013	1.043925E-1	9.531041E-3	1.626731E-3	8.241765E-4	5.268457E-3	2.235587E-3	4.743971E-3	4.723915E-3
10/19/2017  17:45:33.503013	3.918540E-1	8.295268E-4	7.110333E-3	6.888220E-3	9.634297E-3	4.728618E-4	6.459719E-3	2.663644E-4
10/19/2017  17:45:33.504013	7.848926E-3	4.372754E-3	5.791335E-3	2.933794E-3	4.325342E-3	3.192026E-4	1.988901E-3	1.826381E-3
10/19/2017  17:45:33.505013	6.641232E-1	4.353312E-3	1.199468E-3	1.060644E-3	4.824437E-3	3.764071E-3	5.552251E-3	8.983187E-4
10/19/2017  17:45:33.506013	3.658641E-1	4.558669E-3	3.263984E-3	2.600072E-3	4.137485E-3	6.589697E-3	5.161035E-3	2.243305E-3
10/19/2017  17:45:33.507013	2.489033E-1	4.322552E-4	8.304762E-3	3.449450E-3	1.754079E-3	2.162560E-3	6.640551E-3	1.782450E-3
								
10/19/2017  17:45:33.508013	5.049055E-2	4.676435E-3	6.888641E-3	4.585367E-4	2.605816E-3	9.296335E-3	7.050735E-3	2.221922E-3
10/19/2017  17:45:33.509013	1.070788E+0	1.978729E-3	1.856434E-3	4.758989E-4	4.773354E-4	6.762748E-4	1.877688E-3	2.886942E-3
10/19/2017  17:45:33.510013	1.912893E+0	1.858128E-3	6.620577E-3	5.716875E-3	1.637655E-3	6.352404E-3	4.447880E-4	2.601781E-3
10/19/2017  17:45:33.511013	1.807579E+0	2.293765E-3	5.651912E-3	4.040184E-3	5.918687E-4	2.551402E-3	7.360961E-5	7.725371E-3
10/19/2017  17:45:33.512013	1.700948E-1	1.258497E-3	3.153944E-3	3.292672E-3	1.338013E-3	1.391119E-3	5.812531E-3	4.531652E-3
10/19/2017  17:45:33.513013	3.127075E+0	8.707759E-3	1.294590E-3	5.959234E-3	2.568714E-3	1.344060E-3	2.814651E-4	6.208888E-3
10/19/2017  17:45:33.514013	6.319747E+0	6.952405E-3	1.754381E-3	7.433882E-3	5.397349E-3	1.699464E-3	7.211120E-3	5.567839E-3
10/19/2017  17:45:33.515013	5.618014E+0	3.329129E-3	1.180836E-3	1.013196E-2	2.137126E-3	5.218221E-4	2.577699E-3	2.023591E-3
10/19/2017  17:45:33.516013	1.121760E+0	5.302635E-3	2.496320E-4	8.614394E-3	2.929919E-3	3.209772E-3	8.951793E-4	7.804100E-4
10/19/2017  17:45:33.517013	1.334820E+0	5.593954E-3	1.018454E-3	1.768314E-3	9.188705E-3	1.651508E-3	5.003111E-4	3.396938E-3
10/19/2017  17:45:33.518013	5.173045E-1	6.336636E-3	4.788990E-3	3.184383E-3	6.391145E-3	2.491967E-3	1.357399E-4	2.699600E-3
10/19/2017  17:45:33.519013	1.527616E+0	5.170131E-4	1.037915E-3	9.258784E-4	4.427484E-3	1.993714E-3	4.878585E-4	6.718440E-3
10/19/2017  17:45:33.520013	4.548062E+0	5.175298E-3	7.529798E-3	2.495741E-3	2.328200E-3	2.588609E-3	2.628584E-4	4.260971E-4
10/19/2017  17:45:33.521013	5.202080E+0	1.950260E-3	4.045594E-3	9.544461E-3	1.081885E-3	4.534092E-3	1.795389E-3	3.794243E-3
10/19/2017  17:45:33.522013	2.960169E+0	5.268090E-3	2.426721E-3	7.325615E-3	8.764254E-3	2.217591E-3	1.955625E-3	2.804479E-4
10/19/2017  17:45:33.523013	4.163375E-1	3.579382E-3	4.809000E-3	2.050755E-3	9.661980E-3	4.594213E-4	9.733478E-5	3.677860E-4
10/19/2017  17:45:33.524013	6.942801E-1	2.192566E-3	1.238909E-3	2.208874E-3	5.923786E-4	1.701108E-3	1.344983E-4	5.327794E-3
10/19/2017  17:45:33.525013	4.107187E-1	2.594577E-4	8.492691E-3	4.084741E-4	3.208556E-3	5.909215E-3	4.111083E-4	2.466062E-3
10/19/2017  17:45:33.526013	2.643343E-1	3.022532E-3	3.437553E-3	1.688059E-3	9.128356E-4	4.519299E-3	3.960053E-4	4.143130E-3
10/19/2017  17:45:33.527013	1.136595E+0	1.195468E-4	6.713254E-3	1.143994E-3	2.339970E-3	6.172447E-4	2.831008E-4	2.422496E-3
10/19/2017  17:45:33.528013	1.529761E+0	4.146967E-3	4.660613E-3	4.574174E-4	3.886001E-3	4.905884E-3	1.151039E-3	3.654010E-4
10/19/2017  17:45:33.529013	6.094293E-1	7.203570E-3	4.696632E-3	8.043500E-4	1.798318E-3	4.785619E-3	2.175968E-3	5.462497E-4
10/19/2017  17:45:33.530013	1.641764E-1	4.976337E-3	2.596407E-3	1.394405E-3	1.341149E-3	7.914365E-4	1.856972E-3	2.878619E-3
10/19/2017  17:45:33.531013	7.188276E-1	2.568846E-3	4.375408E-3	9.716245E-4	9.907059E-4	3.630567E-4	3.959179E-3	2.625035E-3
10/19/2017  17:45:33.532013	7.140750E-1	8.319763E-3	1.031287E-3	1.340873E-3	2.729868E-3	1.462228E-4	2.133628E-3	2.398830E-3
10/19/2017  17:45:33.533013	1.989010E-1	1.660945E-3	1.127480E-3	1.111259E-3	1.924659E-4	3.510261E-3	4.178990E-5	4.056191E-3
10/19/2017  17:45:33.534013	3.635279E-1	1.106072E-2	2.371034E-3	1.301282E-3	4.963679E-3	6.366495E-5	3.361566E-3	4.199220E-4
10/19/2017  17:45:33.535013	8.829110E-1	7.061003E-3	3.986019E-4	2.474745E-3	9.896499E-4	3.873515E-3	5.945314E-4	4.301981E-3
10/19/2017  17:45:33.536013	8.276828E-1	5.465903E-3	2.838594E-3	1.842381E-4	4.373096E-5	1.771285E-3	2.634199E-3	4.960742E-3
10/19/2017  17:45:33.537013	2.624871E-1	3.523337E-3	3.789982E-3	7.252280E-4	1.578497E-3	3.678993E-3	1.971092E-3	1.929021E-3
10/19/2017  17:45:33.538013	3.485499E-1	4.718782E-3	4.304148E-3	1.183499E-3	1.661770E-3	5.179734E-3	2.738783E-3	3.142139E-3
10/19/2017  17:45:33.539013	7.356455E-1	6.184978E-3	1.227083E-3	1.334543E-3	1.027086E-3	1.991560E-3	2.101682E-4	7.759115E-4
10/19/2017  17:45:33.540013	7.550468E-1	4.921353E-4	1.041575E-3	5.593702E-3	1.559970E-3	8.333019E-3	1.793904E-3	5.169359E-3
								
10/19/2017  17:45:33.541013	6.013420E-1	8.560427E-3	2.271041E-3	7.126108E-3	6.740815E-3	5.863858E-3	9.313208E-4	2.802052E-3
10/19/2017  17:45:33.542013	5.286035E-1	3.236445E-3	4.966750E-3	1.167358E-3	4.675443E-3	3.840350E-4	3.492234E-4	7.639848E-4
10/19/2017  17:45:33.543013	3.897053E-1	5.395097E-3	1.451165E-3	6.622990E-3	9.823181E-4	7.789987E-4	2.004094E-3	2.811310E-3
10/19/2017  17:45:33.544013	1.801700E-2	4.235407E-4	9.090555E-4	1.150631E-2	3.151993E-4	2.495328E-3	1.549939E-3	4.797067E-3
10/19/2017  17:45:33.545013	3.895874E-1	4.823545E-3	6.237112E-3	6.005885E-3	4.166268E-3	4.561728E-4	1.486080E-3	1.928134E-4
10/19/2017  17:45:33.546013	4.898021E-1	2.195771E-3	7.164800E-3	1.772004E-3	3.332111E-3	1.202290E-3	2.900616E-3	1.450546E-3
10/19/2017  17:45:33.547013	1.427674E-1	6.187785E-3	1.112428E-3	1.937884E-4	1.508034E-3	3.419314E-3	1.800449E-3	3.941663E-3
10/19/2017  17:45:33.548013	2.206460E-1	2.397512E-3	3.643838E-3	5.299057E-3	1.906135E-3	9.519620E-3	3.622453E-3	6.699167E-4
10/19/2017  17:45:33.549013	8.222013E-3	2.293750E-3	5.699070E-4	3.326333E-3	1.425120E-3	2.377085E-3	1.188736E-3	6.907331E-3
10/19/2017  17:45:33.550013	3.504462E-1	5.355943E-3	1.564830E-3	4.146236E-3	2.432168E-3	1.121658E-2	6.190881E-3	3.526464E-3
10/19/2017  17:45:33.551013	2.164458E-2	7.314435E-3	5.473728E-3	2.213573E-3	7.805003E-4	5.292303E-3	3.474347E-3	2.932662E-3
10/19/2017  17:45:33.552013	3.108288E-1	2.566747E-3	5.528309E-3	5.274387E-3	4.494573E-4	1.049453E-2	4.186033E-3	5.578594E-4
10/19/2017  17:45:33.553013	8.171704E-2	4.006072E-3	4.334762E-3	2.240275E-3	3.627634E-3	1.016120E-2	3.161650E-3	2.691103E-3
10/19/2017  17:45:33.554013	8.156971E-2	2.389111E-4	1.454062E-3	3.957950E-3	2.046982E-3	6.603431E-4	3.069765E-3	1.414431E-5
10/19/2017  17:45:33.555013	4.959890E-1	4.353255E-3	6.537336E-3	4.092365E-3	2.485408E-3	3.548090E-3	4.786816E-3	9.488831E-4
10/19/2017  17:45:33.556013	5.034208E-1	7.602125E-4	6.241052E-3	3.960676E-3	5.602399E-6	1.215458E-3	2.017459E-3	4.887393E-5
10/19/2017  17:45:33.557013	1.166130E-1	2.638760E-3	3.786236E-3	1.972741E-3	5.752754E-3	5.857234E-3	8.628326E-4	2.287075E-4
10/19/2017  17:45:33.558013	1.004059E+0	7.207342E-3	5.223191E-3	3.239524E-3	1.512729E-3	1.246215E-3	8.444586E-4	4.480009E-3
10/19/2017  17:45:33.559013	1.607113E+0	1.432906E-3	1.850608E-4	1.981607E-3	6.837170E-3	1.243950E-2	5.177346E-3	4.970675E-3
10/19/2017  17:45:33.560013	7.698623E-1	1.519350E-2	1.782900E-3	4.774783E-3	2.744662E-3	1.154691E-2	3.249294E-3	3.892428E-3
10/19/2017  17:45:33.561013	1.585043E+0	9.450994E-3	1.287159E-3	5.076049E-3	2.933600E-3	4.665965E-3	1.062548E-3	7.868832E-3
10/19/2017  17:45:33.562013	3.300683E+0	9.943775E-3	1.193880E-3	2.721453E-3	3.023477E-3	5.366103E-3	2.831217E-3	2.091880E-3
10/19/2017  17:45:33.563013	2.641625E+0	7.767194E-3	2.502632E-3	6.377637E-3	4.867485E-3	4.197778E-3	2.589509E-3	8.290790E-4
10/19/2017  17:45:33.564013	3.273230E-1	2.406359E-4	3.152322E-3	2.526791E-3	3.829105E-4	8.335715E-4	4.251307E-3	2.476258E-3
10/19/2017  17:45:33.565013	4.211114E+0	3.828638E-3	1.637006E-3	1.470078E-2	9.835206E-4	2.234962E-3	1.332181E-4	3.946731E-3
10/19/2017  17:45:33.566013	5.815774E+0	2.324461E-3	5.177794E-4	2.178215E-2	3.033545E-3	1.677075E-3	5.925789E-3	1.054998E-3
10/19/2017  17:45:33.567013	2.857460E+0	2.679631E-3	5.610397E-3	1.103442E-2	7.454767E-3	1.875457E-3	4.978644E-4	3.534031E-3
10/19/2017  17:45:33.568013	2.076594E+0	2.780913E-3	6.539323E-3	3.050502E-3	3.623772E-4	1.197940E-3	1.297448E-4	5.583720E-3
10/19/2017  17:45:33.569013	4.317280E+0	1.753975E-3	2.707822E-3	1.755366E-2	2.472804E-3	7.808081E-3	3.415230E-3	2.823402E-3
10/19/2017  17:45:33.570013	2.941409E+0	1.782582E-3	4.784934E-3	2.253621E-2	3.952143E-3	2.399236E-3	1.370965E-3	2.003125E-3
10/19/2017  17:45:33.571013	6.487469E-1	4.404365E-3	3.829078E-3	7.143880E-3	5.278863E-4	4.760204E-3	2.866474E-3	3.667064E-3
10/19/2017  17:45:33.572013	5.446586E-1	4.773877E-4	2.048166E-3	5.040624E-3	1.871778E-3	4.895153E-3	4.220916E-4	1.501716E-4
10/19/2017  17:45:33.573013	1.090596E+0	1.831967E-3	6.462907E-3	2.242555E-4	2.298010E-3	6.833499E-3	1.148182E-2	5.403888E-3
								
10/19/2017  17:45:33.574013	1.652026E+0	1.979268E-3	3.728031E-3	2.216873E-3	2.510821E-3	5.444767E-3	8.783918E-3	5.603794E-3
10/19/2017  17:45:33.575013	6.340255E-1	2.946119E-3	2.311267E-4	3.123156E-3	3.738577E-3	9.356498E-3	3.566580E-3	4.147742E-3
10/19/2017  17:45:33.576013	2.500198E+0	1.084947E-3	5.180701E-3	1.643176E-3	5.909801E-3	6.389448E-3	2.045069E-4	2.219824E-3
10/19/2017  17:45:33.577013	3.673852E+0	1.805995E-3	3.449453E-3	3.695242E-3	2.171463E-3	2.921409E-3	5.859106E-3	9.705671E-4
10/19/2017  17:45:33.578013	7.671610E-1	3.337475E-3	3.375153E-3	1.773942E-3	8.007106E-3	5.593203E-3	7.730498E-4	1.761530E-3
10/19/2017  17:45:33.579013	1.478799E+0	8.712510E-3	1.095059E-3	5.505594E-3	2.356280E-3	6.038967E-3	2.700639E-3	7.072808E-4
10/19/2017  17:45:33.580013	1.438673E-1	4.214734E-3	1.285235E-3	7.313805E-3	2.811989E-3	4.850460E-3	1.137624E-4	1.831099E-3
10/19/2017  17:45:33.581013	1.900470E+0	9.314760E-3	3.361239E-3	2.656334E-3	2.002562E-3	4.033104E-3	4.642248E-3	2.614034E-3
10/19/2017  17:45:33.582013	6.116967E-1	1.202463E-2	4.445701E-3	1.481669E-3	1.345855E-3	4.026134E-3	3.897348E-3	1.773311E-3
10/19/2017  17:45:33.583013	1.826238E+0	6.980480E-4	1.580423E-3	6.033885E-5	6.615360E-4	7.541704E-4	5.889387E-3	2.069264E-3
10/19/2017  17:45:33.584013	3.042829E+0	3.321409E-3	2.342219E-4	9.091453E-3	2.184521E-3	4.710897E-3	3.058100E-3	2.254848E-3
10/19/2017  17:45:33.585013	2.820334E+0	2.180682E-3	2.112985E-3	1.116451E-2	2.128557E-3	1.920792E-3	5.710920E-3	9.387893E-3
10/19/2017  17:45:33.586013	1.917761E+0	3.572135E-3	1.481268E-3	5.806429E-4	7.186011E-3	3.566650E-3	1.067213E-3	4.052341E-3
10/19/2017  17:45:33.587013	1.530791E+0	2.852932E-3	3.938212E-3	1.906795E-3	4.618314E-4	4.654020E-4	3.122213E-3	7.014219E-3
10/19/2017  17:45:33.588013	2.235008E+0	1.024804E-3	2.739285E-3	1.061697E-2	3.877193E-3	4.732391E-4	2.458332E-3	7.078537E-3
10/19/2017  17:45:33.589013	2.095482E+0	3.131750E-3	2.319865E-3	9.670780E-4	8.306460E-4	3.160519E-3	4.559049E-3	1.780737E-3
10/19/2017  17:45:33.590013	7.717513E-1	7.276197E-5	1.941532E-3	1.346777E-2	1.424703E-3	5.789664E-3	2.390427E-4	5.315611E-5
10/19/2017  17:45:33.591013	3.806565E+0	3.444350E-3	3.468794E-3	7.167265E-3	1.376478E-3	1.903739E-3	4.436763E-3	9.100310E-4
10/19/2017  17:45:33.592013	4.013840E+0	3.844358E-3	1.027174E-3	5.119445E-3	1.158102E-3	6.102542E-3	3.341392E-3	1.035591E-3
10/19/2017  17:45:33.593013	2.746850E+0	6.032082E-3	1.078870E-2	1.131099E-2	1.683622E-3	6.775418E-4	3.348382E-4	1.486724E-3
10/19/2017  17:45:33.594013	1.313630E+0	4.998652E-4	8.453426E-3	7.436286E-3	4.286426E-3	3.978886E-4	1.208834E-3	2.057341E-4
10/19/2017  17:45:33.595013	7.855149E-1	9.629113E-4	3.490534E-3	5.309237E-4	3.465017E-3	5.089552E-3	8.456722E-4	4.042660E-3
10/19/2017  17:45:33.596013	1.288370E+0	8.976212E-4	2.027754E-4	2.124932E-3	5.151349E-3	5.316227E-3	4.526378E-3	8.664708E-5
10/19/2017  17:45:33.597013	1.542243E+0	1.442264E-3	2.803441E-3	3.478885E-3	5.131987E-3	2.412147E-3	4.864276E-3	4.936584E-3
10/19/2017  17:45:33.598013	3.431854E+0	8.338756E-3	4.757669E-3	2.353685E-3	2.800167E-3	3.075795E-3	4.138815E-4	9.551102E-4
10/19/2017  17:45:33.599013	1.471389E+0	9.433183E-3	2.395770E-3	2.569371E-3	1.441914E-3	6.031917E-3	9.694398E-5	2.920827E-3
10/19/2017  17:45:33.600013	8.851691E-1	6.518942E-3	5.002343E-4	1.446594E-3	7.767004E-3	2.748362E-4	1.861817E-3	3.524787E-3
10/19/2017  17:45:33.601013	1.566391E+0	7.806644E-3	5.142696E-3	4.937398E-3	5.063130E-4	1.063650E-3	2.479805E-3	2.851968E-3
10/19/2017  17:45:33.602013	2.027306E+0	4.387249E-3	1.274879E-3	2.170574E-3	7.622520E-3	6.189256E-3	5.672624E-3	1.483410E-3
10/19/2017  17:45:33.603013	2.196548E+0	1.224398E-3	3.522987E-3	1.304253E-3	2.578996E-3	6.573747E-3	3.498654E-3	5.288915E-3
10/19/2017  17:45:33.604013	1.506107E+0	6.097667E-3	6.856719E-3	3.330243E-3	1.517884E-3	1.186886E-3	9.995253E-3	1.062157E-3
10/19/2017  17:45:33.605013	1.175633E+0	8.171947E-4	1.002935E-2	2.402446E-3	5.874877E-4	3.795112E-4	7.279108E-3	7.095944E-3
10/19/2017  17:45:33.606013	1.230129E+0	2.170361E-3	2.037705E-3	1.239447E-3	5.592121E-4	2.191236E-4	4.749966E-3	2.641260E-3
								
10/19/2017  17:45:33.607013	4.651134E-1	9.774566E-5	5.176880E-3	7.880569E-3	2.174578E-3	1.000758E-3	3.860515E-3	5.801967E-3
10/19/2017  17:45:33.608013	1.675430E-1	3.682356E-3	2.023776E-3	3.923345E-3	1.589313E-3	1.560831E-3	9.168005E-4	2.885433E-3
10/19/2017  17:45:33.609013	2.642641E-1	1.060013E-3	2.682683E-3	5.358067E-3	6.840904E-4	7.451852E-3	7.104304E-4	2.322147E-3
10/19/2017  17:45:33.610013	4.430298E-1	8.555752E-3	3.021138E-3	3.410389E-3	2.488757E-5	3.341642E-3	6.854673E-4	1.144973E-3
10/19/2017  17:45:33.611013	1.839265E-1	1.746373E-3	2.095228E-3	1.925749E-3	3.142019E-3	6.688831E-3	2.270916E-3	8.225817E-4
10/19/2017  17:45:33.612013	7.745796E-1	8.816480E-3	1.207421E-2	4.873529E-3	3.590913E-3	1.441325E-3	4.856014E-3	2.165890E-3
10/19/2017  17:45:33.613013	9.241080E-1	1.201661E-4	5.075838E-3	6.389994E-3	1.994826E-3	7.461776E-3	2.278836E-3	2.720047E-3
10/19/2017  17:45:33.614013	6.159151E-1	5.657673E-3	1.586014E-2	1.527383E-3	4.927522E-3	1.807810E-3	6.138686E-3	5.121723E-3
10/19/2017  17:45:33.615013	1.642356E-1	1.518957E-3	6.922739E-3	9.449096E-3	1.993033E-3	3.249960E-3	1.761057E-3	2.878018E-3
10/19/2017  17:45:33.616013	7.439537E-1	1.897680E-3	1.045020E-2	1.211176E-3	5.424922E-3	3.138753E-3	3.422368E-3	5.189163E-3
10/19/2017  17:45:33.617013	2.684669E+0	9.396665E-4	3.833348E-3	5.395457E-3	8.937910E-3	5.057801E-3	2.656368E-3	1.361276E-3
10/19/2017  17:45:33.618013	3.485344E+0	5.024996E-4	5.570738E-4	3.760021E-3	9.996449E-4	1.057456E-3	1.646257E-3	7.383525E-3
10/19/2017  17:45:33.619013	1.183294E+0	6.257636E-3	4.845809E-3	7.759527E-3	8.840011E-3	8.753675E-3	1.128185E-3	6.402583E-4
10/19/2017  17:45:33.620013	2.773895E+0	4.267058E-3	1.098462E-3	3.606187E-3	4.331649E-4	2.753498E-3	5.462328E-4	3.766559E-3
10/19/2017  17:45:33.621013	5.794741E+0	2.721412E-3	1.672245E-3	1.216724E-2	8.322270E-3	1.240875E-3	1.495019E-4	1.183623E-3
10/19/2017  17:45:33.622013	5.314914E+0	1.331779E-3	1.684423E-3	8.283903E-3	9.867789E-4	5.410997E-3	1.565187E-3	2.857440E-3
10/19/2017  17:45:33.623013	1.371704E+0	2.368570E-3	2.667991E-3	1.131917E-3	1.129414E-2	5.176146E-3	3.257997E-4	5.009279E-3
10/19/2017  17:45:33.624013	1.980664E+0	3.515827E-3	8.185960E-3	3.547997E-3	8.984223E-3	1.025196E-3	2.187773E-4	1.855496E-3
10/19/2017  17:45:33.625013	2.814167E+0	1.388645E-3	4.075884E-3	3.602390E-3	2.997371E-3	2.831868E-3	6.223273E-4	9.599912E-3
10/19/2017  17:45:33.626013	2.953437E+0	1.646184E-3	6.017618E-4	1.713465E-3	5.641828E-3	4.043321E-3	1.443798E-3	5.684865E-3
10/19/2017  17:45:33.627013	2.840065E+0	6.458524E-4	9.745627E-4	1.432449E-4	1.632172E-3	1.153331E-3	5.641564E-4	8.999426E-3
10/19/2017  17:45:33.628013	2.003939E+0	2.141803E-3	2.949030E-3	1.145693E-2	2.911045E-3	5.521403E-3	6.040656E-4	3.969328E-3
10/19/2017  17:45:33.629013	1.405334E+0	5.035341E-3	5.554351E-3	1.335739E-2	1.957790E-3	9.238099E-4	9.739891E-5	7.988430E-3
10/19/2017  17:45:33.630013	9.426771E-1	2.782381E-3	1.601820E-3	7.186403E-4	4.647821E-4	7.427970E-3	5.327536E-3	3.803057E-3
10/19/2017  17:45:33.631013	4.188736E-1	1.044284E-2	2.279870E-4	7.968690E-3	2.858891E-3	2.374644E-3	4.699882E-3	2.462278E-3
10/19/2017  17:45:33.632013	1.641613E+0	5.944458E-3	4.819885E-4	4.989045E-3	1.387734E-3	3.348285E-3	7.568745E-3	9.617136E-4
10/19/2017  17:45:33.633013	1.615979E+0	1.913497E-4	2.859027E-3	5.809998E-4	2.798628E-3	2.478588E-4	6.014885E-3	8.216733E-4
10/19/2017  17:45:33.634013	1.377126E+0	3.893986E-3	3.260298E-3	2.130305E-3	7.635652E-3	4.265055E-3	4.403416E-3	2.162661E-3
10/19/2017  17:45:33.635013	1.667009E+0	5.356142E-3	2.233522E-3	1.380511E-3	2.549502E-3	1.045621E-2	9.048824E-4	3.914209E-3
10/19/2017  17:45:33.636013	1.403082E+0	3.137175E-3	2.390962E-3	6.124913E-4	8.946814E-3	6.393772E-3	7.643174E-3	2.968794E-3
10/19/2017  17:45:33.637013	2.053397E-1	9.023323E-3	1.528029E-3	1.079428E-3	2.650465E-3	1.110918E-2	3.077982E-3	1.204290E-3
10/19/2017  17:45:33.638013	1.681175E+0	7.157799E-3	9.358687E-4	3.628478E-3	1.388860E-3	1.048562E-2	1.186891E-3	1.688006E-3
10/19/2017  17:45:33.639013	1.500622E+0	2.912084E-3	3.946069E-3	3.129931E-3	1.191972E-3	7.525950E-3	3.710035E-3	4.236649E-3
								
10/19/2017  17:45:33.640013	5.383172E-1	3.968216E-3	5.974480E-4	4.921433E-3	6.512934E-3	9.276063E-3	6.525778E-3	4.153064E-3
10/19/2017  17:45:33.641013	7.097831E-1	6.599651E-3	2.191286E-3	5.566260E-3	2.305488E-3	1.450771E-3	5.732675E-3	4.635809E-3
10/19/2017  17:45:33.642013	2.498598E+0	1.027248E-3	3.925205E-3	2.247402E-3	1.017474E-2	4.883011E-3	1.235868E-3	8.148124E-3
10/19/2017  17:45:33.643013	2.498729E+0	3.876110E-3	5.466786E-3	2.686221E-3	6.987723E-3	1.974557E-3	1.672853E-3	5.571333E-3
10/19/2017  17:45:33.644013	1.938770E-1	3.003799E-3	4.787937E-4	5.854278E-4	3.885535E-3	1.224050E-3	1.055187E-3	3.498323E-3
10/19/2017  17:45:33.645013	7.623834E-1	1.769803E-3	4.006306E-3	2.193365E-3	1.938662E-3	1.751509E-3	1.160835E-3	2.346268E-3
10/19/2017  17:45:33.646013	3.791381E-1	4.771997E-3	5.442622E-3	4.699348E-3	2.238990E-4	2.242054E-4	3.307390E-3	5.882601E-3
10/19/2017  17:45:33.647013	1.449961E+0	2.485171E-3	5.783839E-4	8.512979E-3	1.576495E-3	3.361876E-3	1.344313E-4	4.413018E-3
10/19/2017  17:45:33.648013	2.128980E+0	8.391133E-4	4.436579E-3	2.806529E-3	8.287343E-4	4.133732E-3	4.990666E-3	8.177311E-3
10/19/2017  17:45:33.649013	3.258337E-1	6.324442E-4	4.611790E-4	9.870932E-3	7.212339E-4	1.064764E-3	1.931400E-3	8.844843E-3
10/19/2017  17:45:33.650013	3.083427E+0	7.927821E-3	2.744522E-3	1.212898E-2	2.811577E-3	3.436198E-3	9.712304E-4	1.006790E-4
10/19/2017  17:45:33.651013	1.457216E+0	2.229661E-3	2.326679E-3	4.171389E-3	3.995928E-3	1.135017E-3	3.525704E-3	3.275720E-3
10/19/2017  17:45:33.652013	2.994447E+0	7.531580E-3	6.936911E-3	5.333282E-3	1.447637E-3	5.004661E-4	7.527907E-3	5.195865E-3
10/19/2017  17:45:33.653013	4.080467E+0	7.261762E-4	5.615476E-3	9.262648E-3	3.427846E-3	2.275946E-3	2.757233E-3	4.132306E-4
10/19/2017  17:45:33.654013	2.180895E-1	2.458696E-3	2.882286E-3	2.722935E-3	2.502999E-3	2.414694E-3	2.362532E-3	1.696767E-3
10/19/2017  17:45:33.655013	4.225727E+0	8.143676E-3	1.333253E-3	2.647353E-3	2.094760E-3	4.497178E-3	2.753237E-3	1.582154E-3
10/19/2017  17:45:33.656013	4.295531E+0	4.334889E-3	1.557511E-3	1.065133E-3	1.278218E-3	3.573313E-3	2.440045E-3	1.019239E-2
10/19/2017  17:45:33.657013	1.121048E-2	1.134842E-3	4.315346E-3	3.883536E-3	5.364826E-3	5.189723E-3	3.634153E-3	4.199443E-3
10/19/2017  17:45:33.658013	3.082139E+0	3.470843E-3	5.332402E-3	8.336093E-3	1.888178E-4	6.421606E-4	7.683620E-4	5.778008E-3
10/19/2017  17:45:33.659013	2.948557E+0	1.302081E-3	1.880208E-3	3.217964E-3	5.696484E-3	7.524215E-3	2.352242E-3	2.002105E-3
10/19/2017  17:45:33.660013	2.626535E+0	8.787657E-3	2.202514E-3	7.610263E-3	2.238431E-3	3.235238E-3	9.732799E-4	1.916834E-3
10/19/2017  17:45:33.661013	1.862965E+0	4.846322E-3	7.804015E-4	1.155338E-2	3.952098E-3	3.698108E-4	1.243314E-3	1.659388E-3
10/19/2017  17:45:33.662013	2.346802E-2	1.517802E-4	3.223960E-3	2.663010E-3	4.575881E-3	3.485408E-3	2.649662E-3	3.809549E-3
10/19/2017  17:45:33.663013	9.761681E-1	9.422164E-4	3.896954E-3	6.346074E-3	1.405754E-4	1.857107E-3	5.585428E-3	2.211543E-3
10/19/2017  17:45:33.664013	1.380254E+0	1.519587E-3	1.264664E-3	3.071670E-3	2.288137E-3	9.145007E-4	8.031618E-4	3.107382E-3
10/19/2017  17:45:33.665013	2.175920E+0	1.215886E-3	4.684561E-3	2.258250E-3	6.640467E-4	2.533632E-3	7.820427E-4	7.122161E-3
10/19/2017  17:45:33.666013	2.646307E+0	2.197053E-4	1.512616E-3	3.315252E-3	6.957763E-4	6.569883E-3	3.164964E-3	1.680610E-3
10/19/2017  17:45:33.667013	2.111109E+0	2.290597E-3	4.127286E-3	2.841390E-3	4.299150E-3	2.803059E-3	1.619443E-3	6.197055E-3
10/19/2017  17:45:33.668013	1.669757E-1	2.400003E-3	8.789116E-4	1.202320E-3	2.927277E-4	5.229512E-3	3.664782E-3	5.796825E-3
10/19/2017  17:45:33.669013	1.871196E+0	2.810848E-4	2.235167E-3	1.263357E-3	2.434985E-3	2.275598E-3	8.893797E-4	9.911802E-5
10/19/2017  17:45:33.670013	1.389612E+0	4.556587E-4	3.553665E-3	3.406504E-3	2.462194E-3	6.684421E-4	4.465944E-3	2.937644E-3
10/19/2017  17:45:33.671013	4.085176E-1	3.365853E-4	5.836569E-3	7.002219E-4	7.139841E-3	3.808053E-3	7.325133E-4	2.384115E-4
10/19/2017  17:45:33.672013	3.989402E-1	3.241021E-3	5.364250E-3	7.121150E-3	1.409438E-3	3.869087E-3	7.801900E-3	1.789553E-3
								
10/19/2017  17:45:33.673013	9.746976E-1	5.007706E-3	1.211699E-3	2.252946E-3	1.053160E-2	5.657076E-4	5.832899E-3	1.203802E-3
10/19/2017  17:45:33.674013	1.573993E+0	7.057899E-3	2.300394E-3	3.631456E-3	4.123707E-3	4.174785E-3	3.050349E-3	2.169652E-3
10/19/2017  17:45:33.675013	4.864066E-1	4.893558E-3	2.062305E-3	3.187578E-3	2.869295E-3	9.657561E-3	1.250278E-3	2.167840E-3
10/19/2017  17:45:33.676013	9.387696E-1	4.743906E-3	4.361987E-3	4.309742E-3	5.709395E-3	2.910681E-3	2.593695E-3	3.760481E-3
10/19/2017  17:45:33.677013	8.271203E-1	5.884350E-3	2.770859E-3	1.446048E-3	5.037507E-3	8.808292E-3	6.368684E-4	6.393451E-4
10/19/2017  17:45:33.678013	6.738657E-1	1.638889E-3	3.825435E-4	6.699237E-3	5.382448E-3	5.697234E-3	1.097494E-3	1.625847E-3
10/19/2017  17:45:33.679013	1.835945E+0	2.522202E-4	3.576711E-5	4.821894E-3	2.020046E-3	1.836382E-3	6.610388E-4	1.103479E-3
10/19/2017  17:45:33.680013	2.092239E+0	5.941968E-3	2.438203E-3	1.278670E-3	7.692067E-3	1.109251E-3	2.774027E-3	5.234766E-3
10/19/2017  17:45:33.681013	5.589805E-1	6.857185E-3	3.846866E-3	5.600754E-3	2.636436E-3	3.854044E-3	1.539643E-3	3.749935E-3
10/19/2017  17:45:33.682013	5.221441E+0	6.359120E-3	9.522898E-4	1.238928E-3	1.080124E-2	8.583118E-4	2.525501E-3	4.244462E-3
10/19/2017  17:45:33.683013	6.829524E+0	2.509858E-3	2.384445E-3	1.272414E-2	1.076790E-2	3.618793E-3	4.071235E-3	4.134455E-3
10/19/2017  17:45:33.684013	2.232768E+0	2.341400E-3	4.988593E-3	6.964852E-3	5.358604E-4	9.443998E-4	9.597959E-4	3.987316E-3
10/19/2017  17:45:33.685013	2.605362E+0	6.619242E-4	2.787094E-3	4.679576E-3	1.678542E-5	1.278245E-3	8.084921E-4	4.323563E-3
10/19/2017  17:45:33.686013	2.405260E+0	2.192099E-3	1.668886E-3	7.887435E-3	3.200034E-3	4.485789E-3	1.850668E-3	4.996534E-3
10/19/2017  17:45:33.687013	2.581733E-1	6.628919E-3	2.229041E-3	8.692944E-4	1.849169E-3	7.593317E-4	3.919235E-3	5.184062E-3
10/19/2017  17:45:33.688013	1.069314E-1	2.032797E-3	5.884328E-3	6.299810E-3	3.147378E-3	1.298004E-3	6.284371E-3	4.151468E-3
10/19/2017  17:45:33.689013	1.953619E+0	3.590458E-3	3.453226E-3	1.307852E-3	7.207501E-4	3.125159E-3	2.732780E-3	3.109798E-5
10/19/2017  17:45:33.690013	3.459244E+0	2.002967E-3	1.174015E-2	1.080912E-2	1.904040E-3	2.365226E-3	2.624944E-4	5.947172E-3
10/19/2017  17:45:33.691013	3.413995E+0	2.649151E-3	3.979035E-3	7.455029E-3	4.159197E-3	5.819280E-3	4.751254E-3	4.388963E-4
10/19/2017  17:45:33.692013	2.880484E+0	7.129872E-3	7.808692E-3	9.778711E-4	8.740165E-4	6.812916E-3	3.678687E-3	3.922842E-3
10/19/2017  17:45:33.693013	1.714682E+0	7.979088E-3	7.287007E-3	1.571125E-3	1.851114E-3	7.425837E-3	3.308500E-3	2.643496E-3
10/19/2017  17:45:33.694013	2.568332E-2	2.621167E-3	3.424445E-4	1.635332E-3	2.684052E-3	6.975425E-3	2.119200E-3	1.590335E-3
10/19/2017  17:45:33.695013	1.096513E-1	4.323120E-3	6.504120E-5	7.095303E-4	1.134318E-3	4.628708E-3	2.568193E-3	7.457350E-3
10/19/2017  17:45:33.696013	7.539206E-1	1.673309E-3	2.099026E-3	1.848700E-3	6.138003E-3	5.247464E-3	1.330857E-3	6.129350E-3
10/19/2017  17:45:33.697013	9.498969E-3	8.730485E-3	3.345443E-4	5.303613E-3	2.503278E-3	1.523359E-4	3.251354E-3	9.978813E-4
10/19/2017  17:45:33.698013	1.633871E+0	6.609828E-3	3.539184E-4	5.662933E-3	2.728828E-3	3.732388E-3	2.142839E-3	2.194626E-4
10/19/2017  17:45:33.699013	2.623783E+0	7.572308E-3	3.178420E-3	2.192304E-3	2.500221E-5	1.227428E-3	1.416872E-3	3.205311E-3
10/19/2017  17:45:33.700013	3.237271E+0	9.892341E-3	1.179311E-3	4.103853E-4	1.381875E-3	6.090897E-4	3.412997E-4	4.456679E-3
10/19/2017  17:45:33.701013	3.903520E+0	5.201253E-4	6.680511E-3	2.504679E-3	2.550677E-3	1.964913E-3	5.063751E-3	7.571816E-3
10/19/2017  17:45:33.702013	4.219740E+0	1.986980E-3	8.144804E-4	8.333368E-3	7.219693E-4	9.193165E-4	1.022441E-3	4.810183E-4
10/19/2017  17:45:33.703013	3.312174E+0	7.741032E-3	3.853316E-3	8.433993E-3	2.270219E-3	3.824019E-3	6.998530E-3	1.337067E-3
10/19/2017  17:45:33.704013	1.283963E+0	9.151531E-3	7.831250E-3	5.637536E-3	3.100108E-3	5.901824E-3	6.279508E-4	4.007753E-3
10/19/2017  17:45:33.705013	8.923616E-1	1.402244E-3	6.973393E-3	1.233768E-2	2.860136E-3	3.401304E-3	3.630229E-3	1.871723E-3
								
10/19/2017  17:45:33.706013	2.315336E+0	5.379782E-4	7.009207E-3	3.162457E-4	3.411758E-3	5.176937E-3	6.666028E-3	3.436131E-4
10/19/2017  17:45:33.707013	1.911101E+0	1.997626E-4	5.300209E-3	4.960918E-3	6.550437E-4	2.993621E-3	2.802214E-3	1.580076E-3
10/19/2017  17:45:33.708013	2.965968E-1	3.708042E-4	3.781011E-3	2.705770E-3	2.256642E-3	3.941377E-3	7.205590E-3	1.013679E-3
10/19/2017  17:45:33.709013	3.596018E-1	3.646452E-3	3.172308E-4	1.137880E-4	4.595932E-3	2.272372E-3	6.875031E-4	1.162002E-3
10/19/2017  17:45:33.710013	1.912834E+0	1.163271E-3	2.300163E-3	4.662504E-3	6.863477E-4	3.822843E-3	4.112231E-3	4.515163E-3
10/19/2017  17:45:33.711013	2.197825E+0	4.898082E-3	1.795332E-3	1.059562E-3	6.911185E-3	1.387675E-5	1.486830E-3	2.584698E-3
10/19/2017  17:45:33.712013	2.518773E+0	6.233484E-5	1.883956E-3	4.140446E-3	1.886128E-3	2.283954E-3	1.075939E-3	3.324847E-3
10/19/2017  17:45:33.713013	3.783442E+0	6.445567E-4	3.035644E-3	5.113733E-3	5.108917E-3	2.319446E-3	5.353020E-4	2.004968E-3
10/19/2017  17:45:33.714013	2.165679E+0	8.388983E-3	5.499237E-3	9.352103E-3	3.104772E-4	1.746588E-4	2.309129E-3	1.297658E-4
10/19/2017  17:45:33.715013	2.455509E+0	4.867835E-3	2.402456E-3	1.537518E-3	1.447731E-3	8.784426E-3	5.932353E-4	3.266826E-3
10/19/2017  17:45:33.716013	4.696881E+0	3.081429E-3	1.557960E-3	1.022558E-2	2.911458E-3	1.098558E-2	2.479709E-3	5.083371E-3
10/19/2017  17:45:33.717013	2.756907E+0	1.994374E-3	3.914207E-3	6.634010E-3	1.271198E-3	7.697429E-3	1.740866E-3	1.454932E-3
10/19/2017  17:45:33.718013	1.745026E-1	3.370681E-3	1.995166E-3	5.638389E-4	9.701365E-3	8.880097E-4	5.236467E-4	2.242290E-3
10/19/2017  17:45:33.719013	1.027201E+0	1.157133E-3	3.663872E-3	3.124976E-3	1.486076E-3	3.315721E-3	8.415063E-4	8.216075E-4
10/19/2017  17:45:33.720013	1.644816E+0	2.704306E-3	1.362874E-4	1.131882E-2	9.281371E-3	7.891424E-4	5.168325E-3	1.069667E-3
10/19/2017  17:45:33.721013	1.574949E+0	2.151794E-3	8.081024E-3	1.053006E-2	1.649198E-3	2.809317E-4	6.838814E-3	3.626886E-3
10/19/2017  17:45:33.722013	7.287652E-1	4.441149E-3	3.057030E-3	4.008377E-3	2.666572E-3	5.406496E-3	5.782856E-3	2.341273E-3
10/19/2017  17:45:33.723013	2.118520E-1	1.468949E-4	3.440843E-3	6.663418E-3	3.983599E-3	3.207991E-3	1.192630E-2	5.183069E-3
10/19/2017  17:45:33.724013	1.498689E+0	1.939899E-3	3.976319E-3	2.075195E-3	1.852604E-3	1.466918E-3	8.543496E-5	5.984536E-3
10/19/2017  17:45:33.725013	1.807965E+0	4.250048E-3	7.195376E-3	2.167533E-2	1.511715E-3	4.710564E-3	5.954164E-3	8.015458E-3
10/19/2017  17:45:33.726013	8.042977E-1	1.347385E-3	8.230080E-4	1.230988E-2	2.544811E-3	3.820901E-4	3.013036E-3	2.502170E-3
10/19/2017  17:45:33.727013	2.903603E+0	5.994043E-3	1.505420E-3	9.317099E-3	8.574728E-4	6.051814E-3	6.637606E-3	2.973491E-3
10/19/2017  17:45:33.728013	1.289071E+0	4.637377E-3	1.782246E-3	2.377735E-3	5.885895E-3	2.857888E-3	1.108077E-3	9.627943E-4
10/19/2017  17:45:33.729013	3.709796E-2	5.008934E-3	4.013506E-3	8.136679E-3	1.467293E-3	6.036829E-4	1.305549E-3	1.640851E-3
10/19/2017  17:45:33.730013	1.358640E+0	3.137681E-3	2.316560E-3	1.226246E-3	5.279353E-3	3.471488E-3	1.472706E-3	6.003424E-4
10/19/2017  17:45:33.731013	2.001563E+0	4.532736E-3	3.219079E-4	5.876931E-3	3.863552E-3	4.560151E-3	3.672440E-3	2.114959E-3
10/19/2017  17:45:33.732013	5.171984E-1	9.795329E-3	3.684230E-3	3.997781E-4	6.836518E-3	1.470484E-2	2.565450E-3	3.919953E-3
10/19/2017  17:45:33.733013	5.136691E+0	6.598193E-4	2.932934E-3	2.316240E-3	4.159748E-4	4.646793E-3	2.103747E-3	5.780453E-3
10/19/2017  17:45:33.734013	7.345905E+0	1.650197E-3	1.547295E-3	1.170896E-2	3.691470E-3	6.094866E-3	3.740810E-3	3.770785E-3
10/19/2017  17:45:33.735013	3.329834E+0	1.020755E-3	6.023947E-3	1.827835E-2	3.625402E-3	6.015168E-4	2.615912E-4	1.994337E-3
10/19/2017  17:45:33.736013	3.204628E+0	6.437238E-3	2.835992E-3	3.292817E-3	2.058698E-4	7.089998E-4	4.241790E-3	8.579172E-3
10/19/2017  17:45:33.737013	5.737149E+0	3.755638E-3	4.925448E-3	2.347158E-2	8.408906E-3	1.513235E-3	4.927306E-3	5.828844E-4
10/19/2017  17:45:33.738013	2.946778E+0	1.837919E-3	6.334690E-4	1.161186E-2	3.436362E-3	2.672186E-3	3.588653E-3	8.326301E-3
								
10/19/2017  17:45:33.739013	1.975898E+0	2.986993E-3	5.812702E-3	1.030569E-3	1.225338E-2	6.255547E-4	2.383733E-3	2.586392E-3
10/19/2017  17:45:33.740013	4.847924E+0	5.166684E-3	2.959589E-3	3.344650E-3	8.234196E-3	3.401188E-3	2.839645E-3	6.807736E-3
10/19/2017  17:45:33.741013	3.122664E+0	6.486244E-4	1.545105E-3	8.714458E-3	4.905247E-3	2.176335E-4	8.918522E-3	1.378072E-3
10/19/2017  17:45:33.742013	1.272583E+0	1.216844E-3	7.440289E-3	2.125497E-4	3.196398E-3	3.731478E-4	3.424060E-3	4.459736E-3
10/19/2017  17:45:33.743013	3.294639E+0	5.292307E-4	8.777261E-3	1.158956E-2	1.069199E-3	2.644682E-3	6.464092E-3	7.554394E-3
10/19/2017  17:45:33.744013	1.333765E+0	3.725816E-3	2.694817E-3	1.666884E-3	4.417084E-3	1.755735E-3	2.575836E-3	6.313355E-3
10/19/2017  17:45:33.745013	3.188595E-1	8.103164E-4	5.991784E-3	3.162642E-3	1.966736E-3	2.160845E-3	9.428925E-4	2.935554E-3
10/19/2017  17:45:33.746013	1.919705E+0	2.332552E-3	3.662445E-3	3.049241E-3	3.204806E-3	4.134830E-4	6.962679E-3	1.150879E-3
10/19/2017  17:45:33.747013	3.491099E+0	2.259155E-3	2.823005E-3	3.324529E-4	4.431038E-3	3.160464E-4	3.383346E-3	5.085744E-3
10/19/2017  17:45:33.748013	1.100210E+0	2.805536E-3	2.528745E-3	5.583978E-3	3.341619E-4	2.302099E-3	7.250321E-3	8.819569E-4
10/19/2017  17:45:33.749013	5.222850E+0	1.289672E-3	3.718215E-4	8.834888E-3	3.155361E-3	4.168713E-3	2.556446E-3	4.548320E-3
10/19/2017  17:45:33.750013	1.687777E+0	6.383769E-3	1.594453E-3	1.142433E-2	1.297766E-3	8.227178E-3	2.419451E-3	1.540321E-3
10/19/2017  17:45:33.751013	2.209431E+0	2.148821E-3	7.900321E-3	2.318054E-3	2.176920E-4	4.584980E-3	1.536615E-3	4.486263E-3
10/19/2017  17:45:33.752013	9.657923E-1	1.010195E-2	2.490594E-3	9.171874E-3	6.224670E-3	1.035977E-2	7.788638E-4	5.618034E-3
10/19/2017  17:45:33.753013	1.988786E-1	2.599423E-3	6.014175E-3	5.479430E-3	1.807615E-3	3.050423E-4	2.830462E-3	4.277529E-4
10/19/2017  17:45:33.754013	1.765273E+0	1.126451E-2	2.185742E-3	1.743977E-4	4.661884E-3	1.330401E-3	3.388754E-3	2.010626E-3
10/19/2017  17:45:33.755013	2.698913E+0	9.194514E-4	2.255197E-3	8.654758E-3	2.132383E-4	4.392908E-3	3.850541E-3	1.171168E-3
10/19/2017  17:45:33.756013	2.862675E+0	1.073387E-2	3.581717E-3	1.359466E-2	5.654731E-3	4.762461E-4	4.011803E-4	5.616615E-3
10/19/2017  17:45:33.757013	2.677726E+0	2.852401E-3	5.949496E-3	1.897121E-3	3.351950E-3	4.006420E-3	4.059042E-3	5.347818E-3
10/19/2017  17:45:33.758013	1.217336E+0	2.066468E-4	3.051249E-4	3.146525E-3	1.490116E-2	2.576423E-3	3.608132E-3	2.124346E-3
10/19/2017  17:45:33.759013	1.821469E+0	4.169263E-3	5.065901E-4	5.956371E-4	4.934993E-3	1.233081E-3	2.606128E-3	8.734407E-4
10/19/2017  17:45:33.760013	4.331502E+0	2.593117E-3	4.716425E-3	8.760690E-3	7.585554E-3	9.832920E-3	6.690452E-4	4.190518E-3
10/19/2017  17:45:33.761013	3.770965E+0	3.143893E-3	3.673234E-3	1.563549E-2	1.711167E-3	1.275186E-3	3.636008E-3	2.561643E-3
10/19/2017  17:45:33.762013	1.412557E+0	5.455565E-3	1.339834E-3	4.312708E-3	1.435081E-3	6.096454E-3	2.945305E-3	7.248542E-3
10/19/2017  17:45:33.763013	7.118534E-1	1.550131E-4	4.237379E-3	1.755811E-3	3.914742E-3	4.452609E-4	1.923440E-3	1.973705E-3
10/19/2017  17:45:33.764013	1.696644E+0	7.144328E-3	2.884177E-3	5.894101E-4	4.763088E-3	2.095096E-3	1.102842E-3	3.051682E-3
10/19/2017  17:45:33.765013	1.415870E+0	3.299116E-3	5.092523E-4	7.293548E-3	4.960398E-3	4.397511E-5	7.740570E-3	5.608883E-3
10/19/2017  17:45:33.766013	2.068780E-1	1.122851E-2	1.706871E-5	8.155767E-3	3.685088E-3	1.828908E-3	8.714692E-3	6.728800E-4
10/19/2017  17:45:33.767013	3.967232E-1	3.391145E-3	2.008316E-3	2.870006E-4	1.001424E-3	5.183660E-4	9.609993E-4	2.373643E-3
10/19/2017  17:45:33.768013	1.556376E-1	6.171824E-3	8.558428E-4	2.070233E-3	1.276937E-3	1.385586E-3	2.379135E-3	5.091695E-4
10/19/2017  17:45:33.769013	2.607827E+0	6.193077E-3	2.704169E-4	1.820990E-3	6.853578E-4	5.129928E-3	3.556974E-3	4.361059E-3
10/19/2017  17:45:33.770013	2.670742E+0	2.762630E-4	1.525401E-4	2.712215E-3	2.386382E-3	1.162481E-3	7.666472E-3	8.148979E-3
10/19/2017  17:45:33.771013	2.801472E-2	2.971559E-3	1.516975E-4	7.297153E-4	8.519363E-4	2.404253E-3	2.008287E-3	3.034966E-3
								
10/19/2017  17:45:33.772013	4.689239E-1	4.357325E-3	4.056771E-3	3.285713E-3	5.766710E-4	5.929892E-4	4.502804E-3	3.112727E-3
10/19/2017  17:45:33.773013	1.548816E+0	1.238126E-2	3.441143E-3	1.978490E-3	2.031369E-4	1.976352E-3	3.960774E-3	4.697529E-3
10/19/2017  17:45:33.774013	2.045323E+0	7.496663E-3	2.817761E-3	3.542806E-3	1.862422E-3	6.859656E-3	2.549802E-3	9.530364E-4
10/19/2017  17:45:33.775013	3.481188E-1	4.382571E-3	9.578694E-4	7.218070E-3	7.412696E-3	4.219093E-3	6.066279E-4	1.109697E-3
10/19/2017  17:45:33.776013	2.623831E+0	5.134419E-3	2.143892E-3	5.377664E-3	3.716025E-3	1.848675E-3	2.388146E-3	1.076384E-3
10/19/2017  17:45:33.777013	2.154699E+0	5.147273E-3	1.790135E-3	3.442288E-3	7.547286E-3	2.225896E-4	8.130164E-4	2.596341E-3
10/19/2017  17:45:33.778013	4.643320E-1	5.189453E-3	9.753249E-5	2.581132E-3	2.610188E-3	4.113620E-3	2.050524E-3	5.102433E-3
10/19/2017  17:45:33.779013	1.523091E-2	6.136460E-3	2.211521E-3	2.285534E-3	9.417841E-3	2.320567E-4	1.442539E-3	1.615833E-3
10/19/2017  17:45:33.780013	1.193927E+0	5.117364E-3	3.450019E-3	1.446277E-3	4.282845E-3	3.777086E-3	2.002476E-3	2.346168E-3
10/19/2017  17:45:33.781013	2.588549E+0	4.270437E-3	9.376139E-4	5.704745E-4	4.226558E-3	1.607698E-3	2.053128E-5	5.561233E-4
10/19/2017  17:45:33.782013	1.073763E+0	1.071620E-3	5.467199E-3	1.340388E-2	2.609132E-3	4.200604E-3	1.260647E-3	2.751089E-3
10/19/2017  17:45:33.783013	3.633265E+0	4.539018E-3	3.842786E-4	1.552793E-2	3.649127E-3	1.507274E-3	4.665697E-3	1.398806E-3
10/19/2017  17:45:33.784013	5.842125E+0	1.357863E-3	3.036327E-3	3.866558E-4	3.998181E-3	1.945435E-3	6.133129E-3	6.097398E-3
10/19/2017  17:45:33.785013	2.151820E+0	2.650752E-3	2.346932E-3	1.494170E-4	2.760984E-3	4.518023E-4	1.704185E-3	3.942077E-3
10/19/2017  17:45:33.786013	2.269782E+0	5.945458E-3	2.060582E-3	4.331492E-3	1.439760E-3	5.867515E-3	5.482702E-3	6.031123E-3
10/19/2017  17:45:33.787013	1.294237E+0	3.401968E-4	7.520216E-3	8.238726E-3	4.202648E-3	3.604041E-3	1.829683E-5	6.537991E-3
10/19/2017  17:45:33.788013	2.960803E+0	8.101942E-4	2.062825E-3	9.152241E-3	2.351289E-3	1.213378E-3	3.963381E-3	6.406366E-3
10/19/2017  17:45:33.789013	2.510967E+0	9.802396E-3	1.305565E-3	5.772755E-3	7.094868E-3	5.669266E-3	1.653006E-3	4.265513E-3
10/19/2017  17:45:33.790013	3.986389E+0	5.806431E-3	5.037290E-3	2.452519E-4	2.299581E-3	5.884264E-4	8.726849E-4	5.152964E-3
10/19/2017  17:45:33.791013	6.951117E+0	5.127266E-3	1.104302E-3	1.555927E-2	6.781844E-3	1.238870E-2	8.959321E-4	1.552042E-3
10/19/2017  17:45:33.792013	2.386295E+0	4.246269E-3	5.035387E-3	8.925735E-3	1.094384E-3	7.682126E-3	8.070571E-4	5.168748E-4
10/19/2017  17:45:33.793013	1.605119E+0	3.191250E-4	6.280350E-4	2.770521E-3	2.383396E-3	3.335257E-3	1.926179E-3	3.036590E-3
10/19/2017  17:45:33.794013	2.033585E+0	3.824366E-6	4.865894E-3	3.718913E-3	5.560631E-3	3.057003E-3	4.135662E-3	1.624055E-3
10/19/2017  17:45:33.795013	2.981558E+0	3.973014E-4	1.051887E-2	1.130155E-2	1.043494E-3	5.330862E-3	3.619802E-3	5.631043E-3
10/19/2017  17:45:33.796013	3.993012E+0	7.633378E-4	1.011984E-3	1.589866E-2	1.037702E-4	4.868288E-3	4.955882E-4	5.633247E-4
10/19/2017  17:45:33.797013	3.115138E+0	4.750863E-3	6.107082E-3	2.608244E-3	2.842457E-3	4.187004E-3	8.138795E-4	7.654357E-3
10/19/2017  17:45:33.798013	1.483652E+0	2.792376E-3	1.301843E-3	5.946914E-3	1.136165E-2	5.887987E-4	1.011745E-3	4.237015E-4
10/19/2017  17:45:33.799013	1.300466E-1	1.538604E-3	2.858217E-3	2.667678E-3	3.869208E-3	5.178513E-3	5.985269E-3	6.851305E-3
10/19/2017  17:45:33.800013	8.861881E-1	9.303665E-3	5.731605E-3	1.437344E-3	9.397646E-3	1.425270E-3	1.170677E-3	5.496994E-3
10/19/2017  17:45:33.801013	1.532627E+0	7.821498E-3	1.715546E-3	1.673965E-3	1.503711E-3	7.164771E-3	6.046203E-3	2.314919E-3
10/19/2017  17:45:33.802013	2.324687E+0	5.061520E-3	4.774462E-3	2.046989E-3	8.032776E-3	3.515683E-3	3.703819E-3	5.930662E-3
10/19/2017  17:45:33.803013	3.142153E+0	4.756692E-3	2.970529E-3	8.607108E-3	2.820403E-3	4.010656E-3	2.114856E-3	8.986462E-3
10/19/2017  17:45:33.804013	2.668153E+0	1.659912E-3	6.780251E-3	1.098421E-2	1.223666E-3	3.670582E-3	1.697617E-3	2.757980E-3
								
10/19/2017  17:45:33.805013	1.113045E+0	3.242885E-3	4.132843E-3	6.110279E-4	2.704220E-3	9.717861E-4	6.953140E-3	8.313496E-3
10/19/2017  17:45:33.806013	3.596105E-2	3.152926E-3	4.824254E-3	1.061954E-3	3.736673E-3	1.257498E-3	1.076921E-2	2.008360E-3
10/19/2017  17:45:33.807013	1.391004E-1	3.961020E-3	3.071632E-3	6.685508E-3	2.355745E-3	3.049272E-3	8.884785E-4	5.834908E-3
10/19/2017  17:45:33.808013	8.077096E-1	6.046745E-4	7.952243E-5	2.891890E-3	7.254497E-3	6.776065E-4	3.958655E-3	2.627114E-3
10/19/2017  17:45:33.809013	1.178285E+0	5.588579E-3	6.343731E-3	1.043474E-2	8.176875E-4	4.435212E-3	1.163985E-3	3.827587E-3
10/19/2017  17:45:33.810013	6.014360E-1	1.850400E-4	7.268554E-3	2.321938E-3	1.329013E-2	1.700701E-3	4.090954E-4	1.731851E-3
10/19/2017  17:45:33.811013	1.913120E+0	8.704852E-4	6.380287E-4	2.896834E-4	3.898082E-3	9.938870E-4	3.863302E-3	1.400837E-3
10/19/2017  17:45:33.812013	1.261445E+0	4.196600E-3	9.917885E-4	3.428613E-3	4.941147E-3	1.521722E-3	1.314559E-3	2.111081E-3
10/19/2017  17:45:33.813013	2.335636E+0	3.397830E-3	2.478663E-3	1.908681E-3	5.514899E-4	2.850988E-3	3.269908E-4	3.153686E-3
10/19/2017  17:45:33.814013	4.511730E+0	5.557611E-3	3.027757E-3	5.796194E-4	1.110141E-3	9.718779E-4	2.727965E-3	4.496138E-3
10/19/2017  17:45:33.815013	2.323423E+0	3.674525E-3	2.667098E-3	1.250091E-2	1.440736E-3	2.976045E-3	9.536102E-4	4.957520E-3
10/19/2017  17:45:33.816013	2.598385E+0	3.608019E-3	1.893847E-3	2.730797E-3	5.418533E-4	6.413001E-5	7.170264E-3	6.319932E-3
10/19/2017  17:45:33.817013	3.828660E+0	2.503896E-3	2.366414E-3	1.328838E-2	5.811280E-3	4.060939E-3	2.180078E-3	6.363416E-3
10/19/2017  17:45:33.818013	1.659798E+0	1.073991E-4	2.851366E-3	5.784687E-3	2.232147E-3	1.765082E-4	4.051738E-3	3.071566E-3
10/19/2017  17:45:33.819013	7.789404E-1	5.993557E-4	4.210794E-3	1.935580E-3	1.349402E-2	8.099918E-4	1.214798E-3	1.524137E-3
10/19/2017  17:45:33.820013	1.216731E+0	3.808598E-3	9.485983E-4	1.170083E-3	8.244902E-3	7.137068E-3	1.172305E-3	5.547787E-3
10/19/2017  17:45:33.821013	5.087941E-1	3.023546E-4	5.443199E-3	1.035294E-3	8.561390E-3	2.988801E-5	4.607411E-3	1.935048E-3
10/19/2017  17:45:33.822013	1.287512E-3	2.905891E-3	1.212188E-3	6.493982E-3	2.709525E-3	1.101935E-2	8.616917E-4	6.969241E-3
10/19/2017  17:45:33.823013	1.812324E+0	2.436383E-3	8.843089E-4	1.151886E-2	7.715310E-3	1.928073E-3	5.010977E-3	8.975268E-3
10/19/2017  17:45:33.824013	2.569957E+0	5.878198E-3	4.071521E-3	1.688226E-3	1.521359E-4	8.538478E-3	2.291502E-3	4.182637E-3
10/19/2017  17:45:33.825013	1.573831E+0	4.198394E-3	3.229807E-3	1.312953E-2	5.827969E-3	8.619667E-4	2.719194E-3	2.813306E-3
10/19/2017  17:45:33.826013	5.126142E+0	1.452588E-3	8.198312E-4	7.890917E-3	4.763729E-4	7.997436E-3	6.572055E-3	4.632851E-3
10/19/2017  17:45:33.827013	1.799336E+0	7.754920E-3	3.225441E-4	2.998582E-3	3.389083E-3	1.540173E-3	6.048930E-3	6.635580E-4
10/19/2017  17:45:33.828013	2.801114E+0	4.930838E-3	4.805454E-4	6.543978E-4	2.581083E-3	1.262858E-3	1.138609E-3	1.131821E-3
10/19/2017  17:45:33.829013	1.902311E+0	6.527911E-4	1.863161E-4	5.855931E-3	4.541239E-3	2.615496E-3	4.064391E-3	3.094497E-3
10/19/2017  17:45:33.830013	1.427768E+0	4.288324E-3	1.821456E-3	6.970895E-3	1.006818E-2	4.576038E-3	4.317450E-3	2.932119E-3
10/19/2017  17:45:33.831013	2.432250E+0	3.219573E-4	9.033405E-4	7.717209E-4	4.143066E-3	2.641690E-3	2.333679E-3	2.934072E-3
10/19/2017  17:45:33.832013	1.382313E+0	1.196042E-2	2.673680E-3	3.266729E-3	1.400834E-3	1.408643E-3	5.577401E-5	3.380766E-4
10/19/2017  17:45:33.833013	5.432335E-1	4.953365E-3	3.575109E-4	4.898904E-3	2.289944E-3	5.056741E-3	1.567910E-3	7.489342E-3
10/19/2017  17:45:33.834013	2.221146E-1	9.934725E-3	2.060663E-3	5.792598E-3	5.841091E-3	4.771754E-3	2.334149E-3	4.129208E-3
10/19/2017  17:45:33.835013	7.430668E-1	6.659429E-3	3.807638E-3	2.321065E-3	4.624200E-3	1.347511E-3	4.749515E-4	1.731060E-3
10/19/2017  17:45:33.836013	1.547843E+0	2.658635E-3	7.188494E-4	1.680729E-3	9.568447E-4	2.545046E-3	2.015014E-3	7.551256E-4
10/19/2017  17:45:33.837013	2.546067E-1	1.990305E-3	8.814098E-4	1.115502E-3	2.115426E-3	5.139177E-3	4.937288E-4	2.555079E-3
								
10/19/2017  17:45:33.838013	1.927539E+0	7.961094E-4	3.539676E-3	3.208746E-3	3.058189E-3	3.742698E-4	8.768709E-4	2.695667E-3
10/19/2017  17:45:33.839013	1.621559E+0	1.012421E-3	1.405851E-3	4.685145E-3	4.771266E-3	2.484181E-3	3.001200E-3	2.574367E-3
10/19/2017  17:45:33.840013	2.005084E-1	2.883591E-3	7.565856E-3	8.148425E-3	4.216341E-3	3.530650E-3	5.367194E-5	8.366875E-3
10/19/2017  17:45:33.841013	1.098960E+0	1.473348E-3	3.931687E-3	1.591762E-3	3.320071E-4	8.832260E-5	4.841343E-3	1.758542E-3
10/19/2017  17:45:33.842013	2.407304E-1	1.327982E-3	8.924454E-4	4.276671E-3	5.543099E-3	5.702822E-3	7.769117E-4	9.200730E-3
10/19/2017  17:45:33.843013	4.723828E+0	9.034079E-4	2.686663E-4	5.036394E-3	2.825094E-3	1.388733E-3	3.825114E-3	1.679558E-4
10/19/2017  17:45:33.844013	5.105323E+0	6.065092E-3	1.892021E-3	7.142907E-3	4.944584E-3	3.076669E-3	3.670040E-3	6.845560E-3
10/19/2017  17:45:33.845013	1.976940E+0	4.969949E-3	4.293180E-3	4.754539E-4	2.126600E-3	2.597510E-3	1.875875E-3	1.943853E-3
10/19/2017  17:45:33.846013	5.469697E+0	9.209914E-3	5.163515E-3	6.957878E-3	3.458587E-3	7.173315E-4	5.571922E-3	6.079987E-3
10/19/2017  17:45:33.847013	1.411244E-1	8.624551E-3	8.254865E-3	8.407744E-3	2.565220E-3	3.080827E-4	1.824745E-3	3.482804E-3
10/19/2017  17:45:33.848013	4.466892E+0	5.556113E-3	5.369882E-3	1.606200E-3	3.286928E-3	9.627359E-3	2.409500E-3	8.391914E-5
10/19/2017  17:45:33.849013	1.883299E+0	6.857138E-3	7.028936E-3	5.650740E-3	3.033478E-3	7.127346E-3	1.041121E-3	2.125628E-3
10/19/2017  17:45:33.850013	1.785045E+0	1.238929E-3	1.050593E-3	3.552781E-4	5.429420E-4	4.470139E-4	2.379949E-3	1.016524E-3
10/19/2017  17:45:33.851013	1.472341E+0	7.266890E-3	2.340319E-3	4.547334E-3	2.403537E-3	1.842022E-3	3.760422E-3	2.702772E-3
10/19/2017  17:45:33.852013	1.618134E-1	4.809143E-3	1.123253E-3	3.046213E-3	6.306570E-4	3.649292E-3	2.238104E-3	1.707024E-3
10/19/2017  17:45:33.853013	1.878785E-1	7.350518E-3	5.260463E-3	3.878820E-3	6.774304E-3	1.725208E-3	3.349994E-4	2.784311E-3
10/19/2017  17:45:33.854013	3.320701E-1	9.932876E-3	1.293449E-4	2.307024E-3	4.661503E-4	2.690701E-3	2.469171E-3	7.583806E-4
10/19/2017  17:45:33.855013	2.512231E-1	9.181618E-4	1.624701E-3	5.909559E-3	9.728102E-3	7.625167E-4	1.275646E-3	7.615019E-4
10/19/2017  17:45:33.856013	1.138623E-1	4.309575E-5	3.806643E-3	3.627643E-4	5.567523E-3	5.598676E-3	1.177763E-3	1.243807E-3
10/19/2017  17:45:33.857013	5.842970E-1	1.758785E-3	1.416735E-3	4.293639E-3	1.699519E-4	4.788684E-3	4.855025E-3	3.361460E-3
10/19/2017  17:45:33.858013	9.716601E-1	1.336001E-3	8.241549E-3	6.743297E-3	2.860889E-3	4.078853E-4	3.406638E-3	7.824757E-3
10/19/2017  17:45:33.859013	8.052589E-1	1.419949E-3	3.622669E-3	9.139520E-3	7.506328E-3	4.867620E-3	1.938290E-3	2.429717E-3
10/19/2017  17:45:33.860013	1.834361E+0	1.908159E-3	1.881427E-3	1.805842E-3	6.098463E-3	2.929373E-3	2.233028E-3	1.323494E-3
10/19/2017  17:45:33.861013	2.608597E+0	5.695515E-3	2.854126E-3	6.594650E-4	4.050817E-5	3.982765E-3	2.555301E-5	7.368623E-4
10/19/2017  17:45:33.862013	4.435118E-1	3.291236E-3	3.216247E-3	4.120026E-3	1.554398E-4	2.575002E-3	2.978408E-3	1.685022E-3
10/19/2017  17:45:33.863013	2.593111E+0	2.813686E-3	2.926754E-3	1.133284E-2	3.030144E-3	1.918091E-4	4.425065E-3	2.410637E-4
10/19/2017  17:45:33.864013	3.896342E+0	4.346740E-3	3.797746E-3	9.311251E-3	4.667906E-4	5.478625E-3	6.905665E-4	3.565359E-4
10/19/2017  17:45:33.865013	3.628276E+0	8.090401E-3	3.889190E-3	6.482371E-3	6.388296E-3	6.328018E-3	1.774315E-3	5.952039E-3
10/19/2017  17:45:33.866013	2.736793E+0	1.298096E-3	2.577184E-3	4.084825E-3	6.836534E-3	3.322918E-4	2.941318E-3	2.778052E-3
10/19/2017  17:45:33.867013	8.828095E-1	5.640298E-4	6.514540E-3	2.655041E-3	3.817355E-3	8.221360E-4	8.737063E-4	7.578612E-3
10/19/2017  17:45:33.868013	3.402713E+0	2.139429E-3	1.095153E-3	6.603897E-3	8.809328E-3	1.132999E-3	5.262270E-3	4.166930E-3
10/19/2017  17:45:33.869013	6.208179E+0	9.338614E-4	6.982035E-4	7.656458E-3	1.216279E-3	4.162027E-3	1.876203E-3	3.155868E-3
10/19/2017  17:45:33.870013	3.010120E+0	5.383492E-5	3.950116E-3	6.141433E-3	7.364731E-3	6.382346E-3	2.571529E-3	2.232938E-3
								
10/19/2017  17:45:33.871013	6.625802E-1	4.495083E-4	4.953518E-3	1.166769E-3	1.066773E-3	6.161361E-3	3.257141E-3	3.333956E-3
10/19/2017  17:45:33.872013	1.010489E+0	6.712408E-3	1.139949E-3	7.394788E-4	4.465934E-3	5.241855E-3	1.869630E-3	3.287609E-3
10/19/2017  17:45:33.873013	2.913079E+0	5.288175E-3	2.845376E-3	5.604809E-3	2.125737E-3	5.093877E-3	1.924039E-3	1.360203E-3
10/19/2017  17:45:33.874013	5.359721E+0	1.497162E-3	2.891086E-3	1.466672E-2	2.667098E-3	4.858549E-3	1.220401E-3	2.490382E-3
10/19/2017  17:45:33.875013	2.457700E+0	1.792059E-4	8.770872E-4	1.284585E-2	1.167028E-3	5.759226E-4	2.263365E-3	2.204962E-3
10/19/2017  17:45:33.876013	3.111214E+0	6.266111E-3	2.509847E-4	5.199709E-4	2.090263E-3	9.329132E-4	2.426447E-3	2.298072E-3
10/19/2017  17:45:33.877013	4.787970E+0	5.624956E-3	1.100242E-3	1.223960E-2	3.593008E-4	1.430314E-3	7.167076E-4	1.261356E-3
10/19/2017  17:45:33.878013	2.362831E+0	2.796867E-5	5.383420E-3	1.210544E-2	2.322357E-4	4.954535E-3	2.791476E-4	4.469808E-5
10/19/2017  17:45:33.879013	1.057083E+0	1.131062E-3	6.660147E-3	7.385440E-3	3.445547E-3	1.093589E-3	4.058808E-3	1.594465E-4
10/19/2017  17:45:33.880013	3.265472E+0	3.307640E-4	5.565624E-4	1.306927E-2	7.190621E-4	4.428848E-3	4.757176E-4	4.008128E-3
10/19/2017  17:45:33.881013	2.696001E+0	6.204908E-4	2.061069E-4	6.695162E-3	3.913662E-5	1.499474E-4	6.572494E-3	3.494011E-3
10/19/2017  17:45:33.882013	5.591943E-1	3.833093E-3	1.324058E-3	1.019675E-2	1.159763E-3	3.661573E-3	1.961105E-3	3.590736E-3
10/19/2017  17:45:33.883013	2.521822E-1	1.458242E-3	3.334254E-3	7.450574E-4	3.636877E-3	2.910584E-3	4.028149E-3	4.002638E-3
10/19/2017  17:45:33.884013	1.979811E-1	1.065881E-2	4.880261E-4	6.907303E-3	4.842973E-3	3.594750E-3	1.236236E-3	5.671694E-4
10/19/2017  17:45:33.885013	2.315405E+0	7.994517E-3	4.021478E-3	8.697056E-3	6.471624E-4	1.009188E-4	5.632968E-3	3.146706E-4
10/19/2017  17:45:33.886013	4.900061E+0	1.877649E-3	9.075055E-3	2.678860E-3	1.417507E-3	5.387121E-3	5.844978E-3	1.643597E-3
10/19/2017  17:45:33.887013	3.076238E+0	3.330021E-3	1.010090E-2	7.858876E-3	3.246651E-3	1.877117E-3	6.371646E-4	1.931842E-3
10/19/2017  17:45:33.888013	4.055431E-1	6.120823E-3	6.414233E-3	8.815007E-3	7.423820E-3	1.313922E-2	9.800366E-4	7.782682E-4
10/19/2017  17:45:33.889013	1.584731E+0	4.922890E-4	5.233062E-3	5.449326E-4	5.692687E-3	9.370174E-3	3.957642E-3	2.366870E-3
10/19/2017  17:45:33.890013	7.595908E-1	6.149592E-4	5.225783E-3	2.551085E-6	6.248479E-3	3.244492E-3	1.732224E-3	1.595620E-3
10/19/2017  17:45:33.891013	3.803507E+0	6.243907E-3	4.590032E-4	1.915180E-3	1.374757E-2	6.436411E-3	1.389922E-3	4.808714E-3
10/19/2017  17:45:33.892013	5.429618E+0	8.209543E-3	4.049392E-3	1.443164E-2	2.582365E-3	2.759574E-4	3.902774E-4	5.078335E-3
10/19/2017  17:45:33.893013	3.309355E+0	3.457966E-3	5.559203E-4	2.107120E-2	6.224158E-3	2.515175E-3	1.436828E-3	1.003937E-3
10/19/2017  17:45:33.894013	3.810418E-1	5.043285E-3	2.608970E-3	1.077032E-2	3.090559E-3	3.545352E-3	2.811593E-3	1.219063E-3
10/19/2017  17:45:33.895013	3.298397E+0	4.540348E-4	2.237186E-3	6.337015E-3	8.799323E-3	4.330738E-3	1.168482E-3	2.118428E-4
10/19/2017  17:45:33.896013	6.277258E-1	3.926963E-3	1.419735E-3	1.161403E-2	7.101053E-4	2.150141E-3	7.734860E-4	1.401329E-3
10/19/2017  17:45:33.897013	3.817733E+0	2.184555E-3	6.186651E-4	1.491932E-3	7.253494E-3	2.536438E-3	4.608855E-3	2.260137E-3
10/19/2017  17:45:33.898013	1.659775E+0	4.603762E-3	1.261950E-4	1.322909E-2	2.002255E-3	2.694375E-4	4.668955E-3	1.862583E-3
10/19/2017  17:45:33.899013	3.335122E+0	7.228546E-4	7.088692E-4	4.205428E-3	2.719561E-3	6.818964E-4	1.625674E-4	6.966515E-3
10/19/2017  17:45:33.900013	2.837800E+0	4.037544E-4	1.967178E-3	6.185383E-3	1.521186E-3	4.725977E-3	2.111504E-3	4.024520E-3
10/19/2017  17:45:33.901013	1.732733E+0	4.751454E-3	5.627351E-3	2.415795E-3	6.854701E-3	6.525569E-3	3.999575E-4	3.472319E-3
10/19/2017  17:45:33.902013	3.557469E+0	2.659919E-3	2.530216E-3	1.142996E-2	3.466533E-3	3.007132E-4	3.952494E-3	6.349616E-4
10/19/2017  17:45:33.903013	1.477035E+0	1.861610E-3	4.232936E-3	5.006424E-3	1.606166E-3	1.970698E-3	2.632061E-3	1.663013E-3
								
10/19/2017  17:45:33.904013	7.938347E-1	6.843844E-3	1.338383E-3	9.269963E-3	4.801596E-4	4.140507E-3	2.987352E-3	9.381040E-4
10/19/2017  17:45:33.905013	2.009429E+0	3.896601E-3	1.909352E-3	1.627159E-2	2.825824E-3	5.017819E-3	2.206795E-3	4.121346E-3
10/19/2017  17:45:33.906013	1.726670E+0	4.228306E-3	5.537249E-3	7.306901E-3	7.929703E-3	6.085495E-3	2.864097E-3	3.462061E-3
10/19/2017  17:45:33.907013	2.272405E-1	6.940486E-3	9.495560E-3	2.969959E-3	1.202096E-3	2.359704E-3	1.435281E-4	4.699501E-3
10/19/2017  17:45:33.908013	7.189370E-1	6.912504E-3	3.612545E-3	1.686322E-3	7.119049E-3	2.962909E-3	2.322995E-3	2.792501E-3
10/19/2017  17:45:33.909013	1.585076E+0	1.083343E-3	2.442310E-3	2.249764E-3	9.713398E-4	6.836148E-3	1.847404E-3	2.232713E-3
10/19/2017  17:45:33.910013	3.381610E+0	1.438787E-2	3.281845E-3	4.323475E-3	3.799909E-3	1.275538E-2	1.170677E-3	1.532047E-3
10/19/2017  17:45:33.911013	1.918010E+0	5.962960E-3	1.860025E-3	5.581400E-3	1.716255E-3	1.414875E-3	4.758115E-3	2.837008E-3
10/19/2017  17:45:33.912013	1.023718E+0	1.130259E-2	1.768716E-3	2.188592E-3	1.286572E-3	5.781745E-3	3.582647E-3	1.399939E-5
10/19/2017  17:45:33.913013	2.028343E+0	3.551578E-3	1.757789E-3	2.203692E-3	4.065189E-3	7.227093E-3	3.360626E-3	1.530848E-3
10/19/2017  17:45:33.914013	1.367876E+0	5.002689E-3	2.682730E-3	2.639917E-3	2.860626E-3	5.563296E-3	8.305520E-3	2.139908E-4
10/19/2017  17:45:33.915013	8.484149E-1	6.851074E-3	6.256286E-3	3.198401E-3	9.788264E-5	8.381200E-3	4.775705E-3	2.769042E-3
10/19/2017  17:45:33.916013	3.644106E-1	9.810821E-3	6.503601E-4	3.060124E-3	1.912814E-4	8.000447E-3	6.554070E-3	2.464152E-3
10/19/2017  17:45:33.917013	1.654512E-1	2.180601E-3	2.087933E-3	3.278908E-4	4.851022E-4	9.754702E-4	3.415424E-3	4.715852E-3
10/19/2017  17:45:33.918013	6.460510E-1	3.097462E-3	4.363824E-3	2.350554E-3	3.394220E-3	1.415126E-3	4.742497E-3	1.552055E-3
10/19/2017  17:45:33.919013	1.065210E+0	2.879212E-3	6.112362E-3	3.078520E-3	5.501487E-3	2.418290E-3	5.835096E-3	2.265043E-3
10/19/2017  17:45:33.920013	3.663635E-1	2.987974E-3	5.382451E-4	3.744440E-3	5.711751E-3	3.251514E-3	2.237257E-3	2.867436E-3
10/19/2017  17:45:33.921013	1.452908E+0	5.548322E-3	1.123217E-3	1.423888E-3	2.021168E-3	3.797755E-3	3.477021E-3	7.485148E-4
10/19/2017  17:45:33.922013	2.499985E+0	6.261770E-3	2.970854E-3	2.010818E-3	5.918858E-3	4.000193E-3	4.655191E-3	6.816329E-3
10/19/2017  17:45:33.923013	1.518683E+0	5.816179E-3	2.598581E-3	4.005677E-3	7.260321E-3	1.305286E-3	1.666858E-3	5.262724E-3
10/19/2017  17:45:33.924013	8.427510E-1	8.775330E-3	1.651459E-3	3.887410E-3	3.665964E-3	7.847969E-3	4.119990E-3	2.104899E-3
10/19/2017  17:45:33.925013	2.356432E+0	6.855133E-3	4.085262E-3	6.089377E-4	9.829260E-3	1.614373E-3	1.201324E-3	4.899113E-4
10/19/2017  17:45:33.926013	9.253472E-1	2.145669E-3	3.189948E-3	6.958980E-6	6.070739E-4	9.766796E-3	3.861479E-3	1.729131E-3
10/19/2017  17:45:33.927013	2.186658E+0	4.830242E-3	7.554522E-3	6.130279E-3	7.296737E-3	7.666286E-4	7.648501E-4	3.971427E-3
10/19/2017  17:45:33.928013	1.822775E+0	4.591300E-3	3.634756E-3	5.792342E-3	2.537266E-3	1.538534E-2	2.136905E-3	3.405636E-3
10/19/2017  17:45:33.929013	3.239815E+0	1.305711E-2	3.950923E-3	7.878831E-3	1.071234E-3	6.297305E-3	7.418252E-4	2.482358E-3
10/19/2017  17:45:33.930013	5.678098E+0	1.180558E-2	8.787742E-3	1.080403E-2	2.274599E-3	1.091092E-2	3.361353E-3	1.786082E-3
10/19/2017  17:45:33.931013	1.820517E+0	7.505887E-3	6.193715E-3	5.775388E-3	9.010386E-4	8.371186E-3	5.282109E-3	2.191144E-3
10/19/2017  17:45:33.932013	2.077507E+0	6.785010E-3	4.683659E-3	1.115966E-2	2.271776E-3	1.026009E-3	2.760582E-3	4.885711E-3
10/19/2017  17:45:33.933013	2.232609E+0	4.318193E-3	2.284872E-3	3.220042E-4	1.001245E-2	1.202982E-3	1.327612E-3	1.666774E-3
10/19/2017  17:45:33.934013	1.314731E+0	1.488196E-4	1.515567E-4	2.197020E-3	9.217769E-3	1.533345E-3	2.052440E-3	1.220695E-2
10/19/2017  17:45:33.935013	1.045483E+0	3.300838E-3	5.249607E-3	5.221121E-4	8.320733E-3	3.644950E-3	1.481537E-3	1.076518E-2
10/19/2017  17:45:33.936013	8.540817E-1	3.187318E-3	1.170347E-3	3.360991E-3	6.525977E-3	1.467408E-3	1.963509E-3	4.657676E-3
								
10/19/2017  17:45:33.937013	2.259467E-1	1.520790E-3	7.692406E-3	4.169794E-3	6.770869E-3	1.165727E-4	1.807683E-3	1.335402E-2
10/19/2017  17:45:33.938013	5.024498E-1	5.894594E-3	4.619523E-3	8.934547E-4	1.742366E-4	9.884222E-3	4.266173E-3	1.846974E-3
10/19/2017  17:45:33.939013	2.530458E+0	2.699939E-3	2.173098E-3	2.992826E-3	1.040639E-2	4.257759E-3	5.339933E-4	7.101755E-3
10/19/2017  17:45:33.940013	2.313510E+0	5.921454E-3	3.753298E-3	3.483562E-3	2.075240E-3	1.054011E-2	1.081556E-3	5.731380E-4
10/19/2017  17:45:33.941013	2.288445E+0	4.788728E-3	4.548019E-3	2.230838E-3	8.668256E-3	3.396259E-3	6.218038E-3	4.134242E-3
10/19/2017  17:45:33.942013	4.877760E+0	5.944285E-3	2.463182E-4	4.037472E-3	4.108748E-3	1.251812E-2	1.803537E-3	1.202562E-3
10/19/2017  17:45:33.943013	1.874043E+0	8.094688E-3	8.748864E-3	7.306659E-3	5.158477E-3	7.799545E-3	9.085623E-3	4.791934E-5
10/19/2017  17:45:33.944013	6.818139E-1	2.070732E-3	6.222071E-3	2.049699E-3	4.464039E-3	2.722405E-3	2.817899E-3	3.058699E-3
10/19/2017  17:45:33.945013	3.597868E-1	3.523672E-3	4.814525E-3	3.789739E-3	2.074327E-3	1.545921E-5	6.746008E-4	1.573379E-3
10/19/2017  17:45:33.946013	1.038168E+0	2.306581E-3	7.176315E-3	2.640646E-3	1.181663E-3	5.670075E-4	4.752062E-3	5.680647E-4
10/19/2017  17:45:33.947013	1.793811E+0	3.515950E-3	2.347154E-3	1.753154E-3	4.239909E-3	7.995958E-3	4.227249E-3	8.958400E-3
10/19/2017  17:45:33.948013	2.826182E-1	8.129330E-3	2.698615E-3	1.262755E-3	1.251372E-3	8.475538E-3	3.995939E-3	3.766576E-3
10/19/2017  17:45:33.949013	6.889898E-1	1.987725E-3	3.338787E-3	5.134772E-3	2.052777E-3	1.901184E-3	3.491972E-3	1.219315E-2
10/19/2017  17:45:33.950013	3.439162E-1	5.100704E-3	3.807916E-3	5.837780E-3	4.675802E-3	1.913001E-3	4.758004E-3	9.510051E-3
10/19/2017  17:45:33.951013	8.467246E-1	4.709100E-3	5.759119E-3	4.736119E-3	3.820580E-3	4.420638E-3	4.363208E-3	3.610904E-3
10/19/2017  17:45:33.952013	3.161550E-2	3.705562E-3	4.130320E-3	7.250677E-3	9.196747E-3	1.069355E-3	1.264079E-3	3.462667E-3
10/19/2017  17:45:33.953013	1.310851E-1	5.243470E-3	5.079909E-3	4.241599E-3	8.110132E-3	5.551969E-3	1.025341E-3	1.859041E-3
10/19/2017  17:45:33.954013	1.458459E+0	1.474253E-3	5.252765E-3	5.408380E-3	5.307461E-3	4.896807E-3	9.298955E-4	1.933886E-3
10/19/2017  17:45:33.955013	1.310385E+0	4.931941E-3	1.932963E-3	6.240944E-3	3.015502E-3	3.209818E-3	1.284080E-3	2.944452E-5
10/19/2017  17:45:33.956013	1.151536E+0	2.327467E-3	8.074131E-3	9.812089E-3	7.629883E-3	1.841245E-4	5.218605E-3	2.147334E-3
10/19/2017  17:45:33.957013	3.055516E-1	7.575041E-3	1.322204E-3	5.985929E-3	2.376407E-3	1.197498E-2	4.381070E-3	2.202313E-3
10/19/2017  17:45:33.958013	2.194701E+0	2.975540E-3	7.607359E-3	3.333219E-3	6.781789E-3	5.451135E-3	1.740922E-4	3.329057E-3
10/19/2017  17:45:33.959013	2.508514E-1	8.330740E-3	1.918210E-3	3.675698E-3	1.057340E-3	9.446998E-3	3.344544E-3	4.854807E-3
10/19/2017  17:45:33.960013	3.889807E+0	3.820885E-3	1.358314E-3	9.248626E-3	3.243300E-3	1.833916E-3	6.120774E-3	3.111881E-4
10/19/2017  17:45:33.961013	2.642638E+0	9.113954E-3	2.333742E-3	1.645378E-3	4.686440E-3	6.168468E-3	3.699559E-3	2.094889E-3
10/19/2017  17:45:33.962013	3.845768E-1	1.082508E-3	4.232793E-3	5.697586E-3	4.466718E-3	5.328918E-3	6.548538E-3	2.527243E-3
10/19/2017  17:45:33.963013	5.330272E-1	2.902818E-3	8.484297E-3	1.789826E-3	4.409719E-3	4.867913E-3	4.085170E-3	1.713659E-3
10/19/2017  17:45:33.964013	7.083729E-1	8.539323E-3	5.866028E-3	7.249421E-3	1.656195E-3	6.449502E-3	2.233201E-3	6.707535E-3
10/19/2017  17:45:33.965013	6.693326E-1	1.568141E-3	1.010511E-2	3.966310E-3	3.709634E-3	7.384139E-4	6.859105E-3	2.066621E-4
10/19/2017  17:45:33.966013	1.072096E+0	1.237045E-2	8.785373E-3	8.492992E-3	3.599817E-3	2.501887E-3	4.863292E-4	8.630901E-4
10/19/2017  17:45:33.967013	2.664747E+0	7.650583E-3	1.358366E-2	6.578364E-3	7.820959E-3	7.358948E-3	7.249652E-3	8.880279E-3
10/19/2017  17:45:33.968013	1.657050E+0	1.878371E-3	4.303523E-3	9.482632E-3	1.267442E-3	3.225755E-3	3.716698E-3	7.870859E-3
10/19/2017  17:45:33.969013	1.935717E+0	3.629275E-3	8.579639E-3	4.272761E-3	4.770488E-3	9.037150E-3	8.360034E-3	5.625807E-3
								
10/19/2017  17:45:33.970013	3.172780E+0	5.565359E-4	4.383334E-3	4.295826E-4	2.853625E-4	4.638722E-3	2.832072E-3	8.290910E-3
10/19/2017  17:45:33.971013	1.709169E+0	1.265980E-3	4.380098E-3	1.545557E-2	5.008941E-3	4.794164E-3	3.869522E-3	5.603419E-5
10/19/2017  17:45:33.972013	7.249551E-1	4.505795E-4	6.671041E-3	8.996895E-3	1.072875E-2	6.184781E-5	4.911593E-3	2.001644E-4
10/19/2017  17:45:33.973013	2.696763E-2	4.766072E-3	5.687804E-3	9.533600E-3	8.700469E-4	6.990240E-3	2.501677E-4	1.850924E-3
10/19/2017  17:45:33.974013	1.412217E+0	2.723470E-3	1.702187E-3	1.380088E-2	1.008187E-2	3.034717E-4	4.848250E-3	3.954901E-3
10/19/2017  17:45:33.975013	1.982288E+0	6.811385E-3	2.410993E-4	2.253049E-3	4.556055E-4	7.733994E-3	5.405110E-3	1.014417E-3
10/19/2017  17:45:33.976013	1.690591E+0	1.229227E-3	4.553367E-3	1.107122E-3	6.902161E-3	8.252860E-4	8.523069E-3	8.137611E-3
10/19/2017  17:45:33.977013	1.216098E+0	1.075967E-2	1.505437E-3	1.170151E-2	2.620402E-3	9.367898E-3	1.454380E-3	3.492484E-3
10/19/2017  17:45:33.978013	5.850300E-1	7.468676E-4	1.186811E-3	1.251072E-2	8.348571E-3	6.089860E-3	3.102056E-3	6.015264E-3
10/19/2017  17:45:33.979013	3.647652E+0	1.230534E-2	7.219123E-4	6.721666E-3	5.623911E-5	1.893172E-3	1.204042E-4	2.261477E-3
10/19/2017  17:45:33.980013	5.954156E+0	1.700126E-3	2.948100E-3	1.697927E-2	2.077763E-3	1.190572E-3	5.422593E-3	3.669048E-3
10/19/2017  17:45:33.981013	6.017987E+0	8.236913E-3	9.194750E-3	1.407068E-2	4.282782E-3	5.130056E-4	8.555165E-3	1.948680E-3
10/19/2017  17:45:33.982013	3.234220E+0	1.008626E-4	1.409123E-3	1.187371E-2	2.673589E-3	6.708250E-3	2.926869E-5	3.555543E-3
10/19/2017  17:45:33.983013	1.316749E+0	2.805073E-3	9.695651E-3	9.696844E-5	9.953668E-4	5.748686E-3	4.029988E-3	5.799447E-3
10/19/2017  17:45:33.984013	4.237124E+0	1.144921E-3	1.640700E-3	1.584202E-2	2.401037E-3	3.267065E-3	3.493266E-3	3.516487E-3
10/19/2017  17:45:33.985013	3.681524E+0	4.896753E-3	8.152499E-3	1.063373E-2	9.029951E-4	2.283699E-3	2.725385E-3	8.551303E-3
10/19/2017  17:45:33.986013	2.135153E+0	6.877487E-3	5.873854E-4	1.939353E-3	6.621929E-3	6.605699E-3	6.693811E-3	3.491887E-3
10/19/2017  17:45:33.987013	1.658122E+0	5.142061E-4	4.975353E-3	3.182373E-3	4.060028E-3	7.436623E-3	3.661205E-3	9.531323E-3
10/19/2017  17:45:33.988013	1.375435E+0	3.971130E-3	5.362942E-3	8.709284E-3	4.532609E-3	1.179940E-3	5.384962E-3	4.202068E-3
10/19/2017  17:45:33.989013	1.335903E+0	8.792191E-3	3.743996E-3	1.315543E-4	1.606686E-3	1.771953E-3	2.568567E-3	6.117448E-3
10/19/2017  17:45:33.990013	1.210962E+0	5.510006E-3	8.547275E-3	4.017418E-3	1.429478E-2	2.887188E-3	4.471890E-3	1.198062E-3
10/19/2017  17:45:33.991013	1.046619E+0	1.338784E-2	4.862997E-3	1.360465E-3	5.933483E-3	5.868939E-3	3.002800E-3	8.564784E-3
10/19/2017  17:45:33.992013	4.044848E+0	9.963364E-4	4.564776E-3	4.405831E-3	1.125886E-2	1.157016E-3	2.456260E-3	2.848948E-3
10/19/2017  17:45:33.993013	4.678604E+0	4.655299E-3	8.469355E-4	5.817390E-3	6.702731E-3	5.964163E-3	9.156475E-4	1.202580E-2
10/19/2017  17:45:33.994013	3.205542E+0	5.093124E-3	3.994588E-3	4.523454E-3	4.135355E-3	3.407105E-3	5.219534E-3	2.927103E-3
10/19/2017  17:45:33.995013	2.830273E-1	7.790208E-3	6.322386E-3	8.578744E-3	3.219563E-3	1.255839E-2	3.456918E-3	5.027761E-3
10/19/2017  17:45:33.996013	4.021070E+0	2.048775E-3	5.862068E-3	5.407324E-4	7.598449E-3	1.639428E-4	4.408184E-4	1.664268E-4
10/19/2017  17:45:33.997013	6.313874E+0	4.205022E-3	6.768234E-3	2.239489E-2	4.289766E-3	8.503279E-3	4.307799E-3	1.711830E-3
10/19/2017  17:45:33.998013	3.822826E+0	3.845537E-3	3.541585E-3	2.055195E-2	5.020218E-3	5.804355E-3	1.375133E-3	4.031618E-3
10/19/2017  17:45:33.999013	5.343598E-1	4.258217E-3	9.650988E-3	8.056819E-3	5.360080E-3	1.232636E-2	1.219185E-2	6.426109E-4
10/19/2017  17:45:34.000013	2.711778E-1	2.610615E-3	8.844166E-3	1.693981E-2	3.672432E-4	1.342850E-3	8.141500E-3	3.595792E-3
10/19/2017  17:45:34.001013	1.121976E+0	3.126812E-3	3.142387E-3	1.840516E-3	6.609615E-3	6.982971E-3	7.144420E-3	3.597422E-3
10/19/2017  17:45:34.002013	2.061426E+0	1.274092E-3	1.066786E-2	4.233658E-3	1.074002E-3	9.472823E-4	4.998516E-3	4.471301E-3
								
10/19/2017  17:45:34.003013	6.683343E-1	9.835100E-4	4.977641E-3	4.745332E-4	4.229108E-3	1.617278E-3	1.684929E-3	5.334325E-3
10/19/2017  17:45:34.004013	1.598824E+0	3.335637E-3	2.908762E-3	1.232452E-3	2.073603E-3	3.474978E-3	2.766220E-3	5.573297E-3
10/19/2017  17:45:34.005013	1.995446E+0	4.490723E-3	3.427305E-5	6.381862E-3	2.203248E-3	1.084863E-3	2.458195E-3	4.923686E-3
10/19/2017  17:45:34.006013	3.946678E-1	2.419841E-3	1.016620E-4	5.297946E-3	4.147171E-3	4.434168E-4	4.853177E-3	7.111222E-3
10/19/2017  17:45:34.007013	1.234937E+0	3.558116E-3	6.282370E-3	1.349728E-3	4.812316E-3	7.451705E-3	2.979065E-3	3.121569E-3
10/19/2017  17:45:34.008013	1.932289E+0	2.798609E-3	1.743512E-3	8.401522E-3	4.248638E-3	8.724031E-3	3.204366E-3	6.878125E-3
10/19/2017  17:45:34.009013	3.131668E+0	4.883691E-3	5.344364E-3	9.258845E-3	7.471305E-3	6.069735E-4	9.626736E-4	2.682698E-4
10/19/2017  17:45:34.010013	3.567006E+0	3.635262E-3	2.521780E-4	6.004592E-3	3.984660E-3	1.917846E-4	4.993653E-3	8.889339E-4
10/19/2017  17:45:34.011013	9.011202E-2	5.204436E-3	1.971931E-3	6.151120E-3	8.526642E-3	6.288033E-3	2.594559E-3	1.509428E-3
10/19/2017  17:45:34.012013	4.189431E+0	3.409778E-4	6.196353E-3	1.832897E-3	5.034726E-5	1.476821E-3	4.780329E-3	2.390197E-3
10/19/2017  17:45:34.013013	2.832947E+0	6.453948E-3	1.629219E-3	6.650830E-3	1.486849E-4	9.122687E-3	4.398219E-3	1.044739E-3
10/19/2017  17:45:34.014013	1.479901E+0	3.941095E-4	8.195790E-3	1.360803E-3	3.714484E-3	2.433833E-3	3.106562E-3	4.094963E-3
10/19/2017  17:45:34.015013	2.896447E+0	1.230072E-3	7.096122E-4	2.373584E-3	3.125805E-3	3.046035E-3	7.799083E-3	1.094032E-2
10/19/2017  17:45:34.016013	1.809681E-1	7.306026E-3	7.577666E-3	1.331235E-2	4.939981E-3	1.407332E-3	4.924512E-3	1.505583E-2
10/19/2017  17:45:34.017013	3.152612E+0	3.194265E-3	3.414297E-3	1.475450E-2	4.236021E-4	3.807190E-3	8.318024E-3	6.313325E-3
10/19/2017  17:45:34.018013	2.782463E+0	5.674685E-3	4.924132E-3	4.721583E-3	1.120254E-3	1.504576E-3	9.364722E-3	1.310882E-2
10/19/2017  17:45:34.019013	7.153947E-1	4.131791E-4	5.626107E-3	5.366911E-3	3.028426E-3	4.509925E-3	3.356594E-3	5.972289E-4
10/19/2017  17:45:34.020013	2.142693E+0	4.986280E-3	1.096114E-3	6.368244E-3	2.031876E-3	5.044624E-4	9.204648E-3	2.479189E-3
10/19/2017  17:45:34.021013	1.944631E-1	7.936786E-5	1.050288E-2	1.246936E-3	4.812927E-3	1.634908E-3	4.897004E-4	3.399176E-3
10/19/2017  17:45:34.022013	4.115909E-2	2.088052E-3	3.936445E-3	6.687132E-3	1.437546E-3	2.582210E-3	7.092319E-3	1.111093E-3
10/19/2017  17:45:34.023013	1.831834E+0	3.450121E-4	6.608561E-3	3.191201E-3	7.562774E-3	7.917141E-3	9.295574E-4	6.169405E-4
10/19/2017  17:45:34.024013	7.029951E-1	3.166006E-3	2.257597E-3	3.234159E-3	2.117719E-3	4.117850E-3	1.464026E-3	2.079161E-3
10/19/2017  17:45:34.025013	8.926277E-1	5.473011E-3	2.821654E-4	5.598525E-3	3.706031E-3	8.869521E-3	1.995461E-3	8.721659E-4
10/19/2017  17:45:34.026013	1.034675E+0	2.727001E-3	4.863323E-3	2.091467E-3	9.345775E-4	5.400399E-3	9.056550E-4	2.635446E-3
10/19/2017  17:45:34.027013	2.279074E+0	5.731152E-4	3.559834E-3	3.437486E-3	3.000624E-3	6.816938E-3	3.897076E-3	2.789037E-4
10/19/2017  17:45:34.028013	1.095771E+0	2.627304E-3	1.899303E-4	6.638385E-3	1.817882E-5	2.206075E-3	2.693127E-3	4.088441E-3
10/19/2017  17:45:34.029013	1.046401E-1	1.472011E-3	1.489467E-3	2.855277E-3	7.558704E-4	3.355920E-3	3.333471E-3	1.593577E-4
10/19/2017  17:45:34.030013	1.589935E+0	4.375392E-3	9.150466E-4	7.498481E-3	1.579451E-3	2.686121E-3	9.750866E-4	6.536342E-3
10/19/2017  17:45:34.031013	2.037625E+0	3.254091E-3	1.132225E-3	1.487775E-4	4.207093E-3	5.486261E-4	4.435207E-3	5.248039E-5
10/19/2017  17:45:34.032013	1.087036E+0	1.270738E-3	1.710054E-3	8.839417E-3	4.025483E-3	4.475753E-3	2.754686E-3	1.024665E-2
10/19/2017  17:45:34.033013	2.704687E+0	2.894894E-3	5.718711E-3	3.226740E-3	6.283122E-3	3.588005E-3	5.229670E-4	1.064930E-3
10/19/2017  17:45:34.034013	2.330691E+0	5.207327E-3	8.183458E-3	6.696469E-3	5.645907E-3	3.334948E-3	2.808998E-3	9.055174E-3
10/19/2017  17:45:34.035013	5.552157E+0	1.712726E-3	1.739609E-3	1.394854E-2	6.096003E-3	9.484689E-3	1.973072E-3	1.101468E-3
								
10/19/2017  17:45:34.036013	1.293236E+0	2.025497E-3	2.021234E-3	1.211372E-2	4.270740E-3	3.121222E-3	4.819307E-3	4.366483E-3
10/19/2017  17:45:34.037013	1.224217E+0	5.483258E-3	3.431893E-3	5.467337E-4	1.029926E-3	1.072104E-2	2.577556E-3	6.268329E-3
10/19/2017  17:45:34.038013	1.051747E-1	3.763727E-3	4.675189E-3	8.712529E-3	4.858369E-3	2.054770E-4	3.969637E-3	2.855247E-3
10/19/2017  17:45:34.039013	1.017075E+0	3.244105E-3	6.181799E-3	4.384568E-3	4.453069E-4	9.550356E-3	8.838987E-4	5.939076E-3
10/19/2017  17:45:34.040013	1.695033E+0	2.330758E-4	1.494075E-2	8.768986E-4	2.377975E-4	4.336693E-3	4.609703E-3	9.961021E-4
10/19/2017  17:45:34.041013	5.525253E-1	4.901920E-3	6.398389E-3	1.442512E-3	3.821502E-3	8.380091E-3	4.420959E-3	4.133925E-3
10/19/2017  17:45:34.042013	8.065376E-1	1.167590E-3	5.441063E-3	4.464170E-3	1.524825E-3	2.379237E-3	5.148816E-3	3.095170E-3
10/19/2017  17:45:34.043013	1.030235E+0	4.252880E-3	4.393299E-3	2.759997E-3	1.921614E-3	2.402055E-3	4.523261E-3	3.140486E-3
10/19/2017  17:45:34.044013	1.377471E+0	1.012918E-3	7.164709E-4	5.065806E-4	4.287479E-3	1.656410E-3	2.013671E-3	4.427466E-4
10/19/2017  17:45:34.045013	2.533560E-1	3.414661E-3	4.490801E-4	7.574275E-4	1.077104E-3	7.619911E-3	3.533621E-3	3.019755E-3
10/19/2017  17:45:34.046013	1.759441E+0	5.686004E-3	1.929460E-3	2.209185E-3	5.631146E-3	2.770214E-3	1.736744E-3	2.823520E-4
10/19/2017  17:45:34.047013	3.257016E+0	2.912670E-3	1.518111E-3	5.620254E-4	4.092204E-3	4.766420E-3	3.058574E-3	3.640920E-3
10/19/2017  17:45:34.048013	1.253989E+0	2.958744E-3	4.684805E-3	6.411371E-3	6.755421E-3	5.896455E-4	3.360453E-5	2.052814E-3
10/19/2017  17:45:34.049013	2.533741E+0	3.303613E-3	2.061471E-3	2.181186E-3	1.105439E-3	4.242337E-3	3.041011E-3	2.824161E-4
10/19/2017  17:45:34.050013	3.389566E+0	1.782809E-3	1.531213E-3	7.374053E-3	1.390528E-3	1.162064E-3	2.758984E-3	3.810428E-3
10/19/2017  17:45:34.051013	2.150397E+0	6.671125E-3	6.973527E-4	4.140920E-3	2.290047E-3	2.832558E-3	3.920627E-7	9.281646E-3
10/19/2017  17:45:34.052013	1.068803E+0	7.310543E-3	4.439724E-3	3.842975E-3	7.854523E-3	2.782787E-3	3.352717E-3	3.827459E-3
10/19/2017  17:45:34.053013	2.211103E+0	5.096604E-3	2.888181E-3	7.171423E-3	1.325727E-3	5.354368E-3	2.686240E-4	4.677064E-3
10/19/2017  17:45:34.054013	5.650350E+0	9.452433E-4	2.165705E-3	1.354291E-2	6.414172E-3	5.012476E-4	9.342600E-3	2.948016E-4
10/19/2017  17:45:34.055013	3.167408E+0	1.265296E-3	2.236408E-3	1.203072E-2	1.845371E-3	4.681387E-3	4.327509E-3	3.842035E-3
10/19/2017  17:45:34.056013	2.474558E+0	1.964517E-3	6.049533E-3	4.797373E-3	4.543559E-3	1.610739E-3	3.335154E-3	3.762325E-3
10/19/2017  17:45:34.057013	4.965638E+0	5.041265E-3	1.119980E-3	1.639355E-2	7.430938E-3	2.175891E-3	2.974186E-3	5.637658E-3
10/19/2017  17:45:34.058013	3.071564E+0	4.377533E-3	2.897315E-3	1.374700E-2	5.817729E-3	6.704602E-3	5.644813E-3	8.865394E-5
10/19/2017  17:45:34.059013	2.092770E+0	6.026826E-4	3.957155E-3	2.361621E-3	7.431949E-3	3.057539E-3	2.039968E-3	1.124680E-3
10/19/2017  17:45:34.060013	4.621915E+0	3.693404E-4	1.148482E-3	9.142797E-3	4.496672E-3	4.830683E-3	1.919920E-3	2.593060E-4
10/19/2017  17:45:34.061013	9.371852E-2	1.478946E-3	6.733435E-3	4.083879E-3	2.875591E-3	6.443417E-4	1.744214E-3	5.674617E-4
10/19/2017  17:45:34.062013	5.210357E+0	6.945389E-3	5.172320E-3	1.122300E-2	2.494214E-3	2.089668E-3	1.965059E-3	3.549813E-4
10/19/2017  17:45:34.063013	4.607225E+0	1.006671E-2	7.129245E-3	1.364881E-2	2.708359E-3	5.733970E-3	1.801956E-3	6.253309E-4
10/19/2017  17:45:34.064013	1.607245E+0	1.039442E-3	7.873114E-3	5.838312E-3	3.235639E-3	2.897617E-3	1.951079E-3	4.870317E-3
10/19/2017  17:45:34.065013	8.571504E-1	7.052505E-3	2.877752E-3	3.991438E-3	6.055765E-4	1.905962E-3	1.948726E-3	6.528733E-3
10/19/2017  17:45:34.066013	2.634939E+0	8.666203E-4	4.082444E-3	1.479163E-2	5.569183E-4	4.646283E-3	3.388700E-3	5.103881E-4
10/19/2017  17:45:34.067013	2.830226E+0	5.265337E-4	2.623334E-3	1.222460E-2	4.474865E-3	5.156232E-3	2.320764E-3	1.616811E-3
10/19/2017  17:45:34.068013	2.042531E+0	5.158337E-3	3.585110E-3	7.857789E-4	8.786892E-4	2.861795E-3	3.823440E-4	2.145053E-4
								
10/19/2017  17:45:34.069013	1.836420E+0	5.078512E-3	1.340337E-3	1.668282E-3	3.770097E-3	3.609885E-3	3.128540E-3	3.207391E-3
10/19/2017  17:45:34.070013	1.752060E+0	2.508103E-4	4.430401E-4	4.352246E-3	1.763650E-3	1.484406E-3	3.365022E-3	8.237415E-3
10/19/2017  17:45:34.071013	1.099348E+0	2.672542E-3	2.816896E-4	4.717262E-3	5.524625E-4	1.647832E-3	4.110749E-3	5.007332E-3
10/19/2017  17:45:34.072013	9.054925E-2	2.876192E-3	1.807332E-3	7.523521E-4	2.640352E-3	2.333727E-4	1.931914E-3	3.904797E-3
10/19/2017  17:45:34.073013	1.416418E+0	9.580034E-4	2.160119E-3	9.075922E-3	2.697924E-3	6.220193E-4	4.802548E-4	4.162476E-3
10/19/2017  17:45:34.074013	2.348824E+0	1.124146E-3	2.566364E-3	1.142240E-2	6.489842E-3	3.793051E-3	4.982438E-4	3.959191E-3
10/19/2017  17:45:34.075013	1.173846E+0	1.766566E-4	1.825949E-3	1.819448E-3	5.192585E-3	2.257012E-3	6.144084E-3	2.341781E-3
10/19/2017  17:45:34.076013	3.277688E-1	5.857706E-3	2.125887E-4	7.921643E-3	3.295268E-3	8.098819E-5	2.641151E-3	4.970262E-3
10/19/2017  17:45:34.077013	1.122717E-1	1.871842E-3	3.079638E-3	2.038818E-3	2.633087E-3	8.965858E-4	6.243914E-3	6.585239E-4
10/19/2017  17:45:34.078013	1.057581E+0	6.928822E-3	1.068189E-3	3.018390E-4	7.623462E-3	1.501049E-3	3.877971E-3	3.289897E-3
10/19/2017  17:45:34.079013	1.017618E+0	1.444357E-3	3.468483E-3	5.424662E-4	3.309444E-3	1.101326E-4	5.539568E-3	1.931476E-3
10/19/2017  17:45:34.080013	6.866614E-1	3.479973E-3	7.761240E-3	3.498747E-4	2.850508E-3	1.619321E-3	7.432542E-3	2.195676E-4
10/19/2017  17:45:34.081013	9.971665E-3	4.389761E-3	6.459044E-3	1.018610E-3	7.856545E-4	3.201010E-3	1.467116E-3	1.754797E-3
10/19/2017  17:45:34.082013	1.025150E+0	8.712083E-3	7.740690E-3	9.694184E-4	6.036329E-3	6.489545E-3	3.165790E-4	6.881446E-3
10/19/2017  17:45:34.083013	1.577969E+0	7.626567E-3	4.670745E-3	1.860177E-3	6.544284E-3	2.999570E-3	1.951993E-3	5.605628E-3
10/19/2017  17:45:34.084013	1.960098E+0	2.796201E-3	3.920746E-3	3.740309E-3	1.235525E-3	8.933429E-3	5.298113E-4	4.845327E-3
10/19/2017  17:45:34.085013	1.321143E+0	7.458690E-3	5.151935E-5	2.005185E-3	5.071092E-3	7.211088E-3	1.845637E-3	2.205372E-3
10/19/2017  17:45:34.086013	1.412864E+0	7.103081E-3	2.236865E-3	4.500779E-3	2.697633E-3	8.138136E-3	9.022396E-4	4.205463E-3
10/19/2017  17:45:34.087013	2.563308E+0	2.993859E-4	1.228992E-3	4.186986E-3	1.030415E-2	7.202085E-3	1.287922E-3	2.123391E-3
10/19/2017  17:45:34.088013	6.869123E-1	3.332465E-3	2.935419E-3	4.641906E-3	2.920404E-3	4.858016E-3	2.214307E-3	1.359168E-3
10/19/2017  17:45:34.089013	6.106819E-1	6.361038E-3	1.382745E-3	1.140024E-3	1.192421E-2	3.287927E-3	2.041230E-3	4.632961E-3
10/19/2017  17:45:34.090013	1.191428E+0	1.146605E-3	3.250787E-3	8.584671E-3	9.957307E-3	7.668794E-4	2.419181E-4	2.655032E-3
10/19/2017  17:45:34.091013	2.371904E+0	4.197260E-4	3.858106E-3	6.928992E-3	7.530863E-3	1.336533E-3	5.257507E-3	4.109726E-3
10/19/2017  17:45:34.092013	4.603843E+0	1.119744E-3	9.356663E-5	1.281884E-4	9.463597E-3	2.068988E-3	4.734700E-3	2.691594E-4
10/19/2017  17:45:34.093013	1.513384E-1	2.405184E-3	1.727233E-3	1.080844E-3	4.245877E-3	8.358099E-4	2.605589E-3	6.174443E-3
10/19/2017  17:45:34.094013	4.459963E+0	2.676474E-3	9.705763E-4	5.832178E-4	6.549821E-3	6.944139E-3	6.581314E-4	1.466140E-3
10/19/2017  17:45:34.095013	3.133264E+0	1.538651E-3	1.613301E-3	7.888940E-3	1.325577E-3	2.349312E-3	2.377492E-4	2.912229E-3
10/19/2017  17:45:34.096013	1.402112E+0	5.778352E-3	5.722462E-4	1.069557E-2	4.312899E-5	3.443443E-3	4.969359E-4	2.267872E-3
10/19/2017  17:45:34.097013	3.193703E+0	7.101685E-3	3.888613E-3	1.497716E-3	2.814619E-3	1.271206E-3	1.251034E-3	1.721979E-3
10/19/2017  17:45:34.098013	1.107599E+0	4.741398E-3	3.732446E-3	9.952546E-3	1.569836E-3	5.165654E-4	2.203127E-3	3.934376E-4
10/19/2017  17:45:34.099013	3.495621E-1	2.856519E-3	3.616444E-3	3.554479E-3	5.513893E-3	6.221673E-3	6.460716E-4	4.035065E-3
10/19/2017  17:45:34.100013	1.004437E-1	7.099124E-3	1.761923E-3	7.690089E-4	4.101975E-3	5.661242E-3	2.572446E-3	2.873638E-3
10/19/2017  17:45:34.101013	9.863445E-2	4.026338E-3	4.357285E-3	2.777586E-3	3.341526E-3	1.193642E-3	2.360586E-3	3.782171E-3
								
10/19/2017  17:45:34.102013	6.674401E-1	7.021491E-4	1.625218E-3	6.473678E-3	3.363637E-3	5.117027E-3	3.586651E-3	1.521970E-3
10/19/2017  17:45:34.103013	1.394970E+0	2.512293E-3	3.378602E-3	2.693032E-4	2.601757E-3	2.752156E-3	4.324332E-3	8.186046E-3
10/19/2017  17:45:34.104013	3.323729E-1	2.166753E-3	2.057632E-3	4.432834E-3	6.672678E-3	1.372037E-3	8.174441E-4	4.741101E-3
10/19/2017  17:45:34.105013	2.436060E+0	2.999542E-3	4.138996E-3	5.056045E-3	2.010862E-3	2.641500E-3	1.018980E-4	4.350823E-3
10/19/2017  17:45:34.106013	2.253945E+0	6.295392E-3	4.875295E-4	8.957448E-3	7.176584E-3	1.739190E-3	9.952842E-4	2.879712E-3
10/19/2017  17:45:34.107013	1.025166E+0	5.784410E-3	4.716166E-3	1.707153E-3	1.661668E-3	8.163512E-4	2.024983E-3	1.924613E-3
10/19/2017  17:45:34.108013	4.640294E-1	4.221309E-3	4.337442E-3	9.509396E-4	1.032702E-2	3.419024E-3	2.588965E-3	4.155425E-3
10/19/2017  17:45:34.109013	4.923131E-1	1.412635E-5	7.262242E-3	5.593906E-3	2.180546E-3	1.847192E-3	8.184895E-3	4.549031E-4
10/19/2017  17:45:34.110013	4.525216E-1	8.172326E-3	3.680673E-3	1.122454E-2	9.335683E-3	9.320080E-3	7.360185E-4	1.898804E-3
10/19/2017  17:45:34.111013	8.214583E-2	2.759631E-5	9.631324E-3	3.735614E-4	2.813038E-3	3.953017E-3	6.330678E-3	1.786030E-3
10/19/2017  17:45:34.112013	6.581433E-1	8.237973E-3	2.792123E-3	7.382208E-3	2.533504E-3	6.446418E-3	3.364546E-3	4.340453E-3
10/19/2017  17:45:34.113013	1.093290E+0	3.269438E-3	5.100334E-3	4.245343E-3	1.284669E-3	7.991751E-3	1.842292E-3	6.894249E-3
10/19/2017  17:45:34.114013	2.595632E+0	4.747769E-4	4.232602E-3	8.781372E-3	1.471092E-3	3.309092E-3	4.128159E-3	8.137326E-3
10/19/2017  17:45:34.115013	3.642567E+0	2.310104E-4	4.193444E-3	1.922385E-3	2.615578E-3	5.792281E-4	3.517377E-3	1.348522E-2
10/19/2017  17:45:34.116013	7.519535E-1	6.115512E-3	4.660267E-3	2.501597E-3	7.137153E-3	2.824257E-3	1.248614E-3	1.918353E-3
10/19/2017  17:45:34.117013	3.707102E+0	7.918156E-3	2.939700E-3	4.452709E-4	3.717816E-4	3.913366E-3	4.738301E-3	7.048377E-3
10/19/2017  17:45:34.118013	4.018499E+0	2.544250E-3	4.971364E-3	1.325205E-2	9.843513E-3	2.161458E-3	3.389981E-3	3.841320E-3
10/19/2017  17:45:34.119013	3.152910E-1	5.491281E-3	1.023741E-2	9.195011E-3	7.785648E-4	6.415052E-3	3.332261E-3	4.956908E-3
10/19/2017  17:45:34.120013	4.133789E+0	2.670326E-3	8.544139E-4	1.082215E-2	8.878405E-3	4.370129E-3	2.929296E-3	3.050607E-3
10/19/2017  17:45:34.121013	3.108094E+0	3.013770E-4	7.151241E-3	1.078837E-2	3.120425E-3	7.249357E-3	2.482882E-3	4.396388E-3
10/19/2017  17:45:34.122013	4.714650E-1	9.828489E-3	8.398987E-4	4.209026E-3	6.789793E-3	6.390269E-3	2.074311E-3	2.915160E-3
10/19/2017  17:45:34.123013	2.210138E+0	9.053352E-3	1.448645E-3	4.066429E-3	3.077490E-3	4.937069E-3	2.989857E-3	1.850225E-3
10/19/2017  17:45:34.124013	2.358660E+0	3.247492E-3	4.521865E-3	2.345988E-3	3.901089E-3	7.358885E-3	7.781670E-4	1.821987E-3
10/19/2017  17:45:34.125013	2.130536E+0	1.323848E-3	2.103035E-3	1.146503E-2	1.680289E-3	2.352312E-3	4.000996E-3	1.352768E-3
10/19/2017  17:45:34.126013	1.032569E+0	4.696701E-3	3.947052E-3	7.214435E-3	2.501276E-3	5.623969E-3	2.056374E-3	2.499784E-3
10/19/2017  17:45:34.127013	1.635622E-1	4.350244E-3	2.328431E-3	6.671677E-3	5.753327E-3	1.105804E-3	3.755426E-3	1.031423E-3
10/19/2017  17:45:34.128013	2.603867E-1	6.634005E-4	6.450519E-3	4.098776E-3	9.319831E-3	1.154574E-3	1.396976E-4	7.670956E-3
10/19/2017  17:45:34.129013	6.581533E-1	6.526299E-4	2.644545E-3	1.057874E-3	2.469147E-3	3.666127E-3	1.996143E-3	5.463881E-3
10/19/2017  17:45:34.130013	2.337872E+0	5.029817E-3	4.235627E-3	6.656619E-3	3.160251E-3	5.236459E-3	3.210639E-3	3.910299E-3
10/19/2017  17:45:34.131013	1.569871E+0	3.758193E-3	1.459859E-3	8.083132E-3	7.036933E-3	5.511908E-3	1.379392E-3	8.272907E-3
10/19/2017  17:45:34.132013	9.065970E-1	3.484388E-4	2.853521E-3	2.376190E-3	1.567757E-5	7.532809E-3	2.628406E-3	4.237014E-3
10/19/2017  17:45:34.133013	9.830139E-1	5.042900E-3	6.410674E-3	4.048044E-3	8.435567E-3	2.998278E-3	1.844421E-3	3.024919E-3
10/19/2017  17:45:34.134013	1.016973E+0	8.235587E-3	2.534033E-3	3.288601E-3	2.799100E-3	9.253873E-3	7.816258E-3	5.100988E-3
								
10/19/2017  17:45:34.135013	1.598854E+0	4.186560E-3	9.623861E-3	4.261876E-3	5.991562E-3	8.530746E-4	8.646656E-3	4.180553E-4
10/19/2017  17:45:34.136013	9.080327E-1	9.286829E-3	1.789436E-3	4.654425E-3	6.746745E-3	4.296101E-3	3.737049E-3	3.354097E-3
10/19/2017  17:45:34.137013	8.022999E-1	3.227446E-3	5.299270E-3	5.805461E-4	4.145925E-3	7.460142E-3	6.888612E-3	1.054704E-5
