Parameters: 	Upper Cutoff: : 500	Lower Cutoff: : 10	Sample Rate (HZ)1000	Frames Per Second: 30	Display Window Size (S)400	MVC Window Size (s): 400	Seconds To Acquire MVC: 3	Display Channel: 0
waveform	[0]	[1]	[2]	[3]	[4]	[5]	[6]	[7]
t0	10/19/2017  17:43:31.839406	10/19/2017  17:43:31.839406	10/19/2017  17:43:31.839406	10/19/2017  17:43:31.839406	10/19/2017  17:43:31.839406	10/19/2017  17:43:31.839406	10/19/2017  17:43:31.839406	10/19/2017  17:43:31.839406
delta t	0.001000	0.001000	0.001000	0.001000	0.001000	0.001000	0.001000	0.001000

time	Y[0]	Y[1]	Y[2]	Y[3]	Y[4]	Y[5]	Y[6]	Y[7]
10/19/2017  17:43:31.824206	1.632846E-1	3.017961E-3	1.646291E-2	-1.014142E+1	1.202884E-2	1.946206E-2	8.222822E-2	3.673486E-2
10/19/2017  17:43:31.825206	-4.035809E-1	1.064948E-2	1.137250E-2	-1.013378E+1	2.477858E-2	1.691808E-2	7.968532E-2	3.673486E-2
10/19/2017  17:43:31.826206	5.143673E-2	2.082484E-2	2.155331E-2	-1.014142E+1	2.987847E-2	2.709402E-2	6.697081E-2	2.401527E-2
10/19/2017  17:43:31.827206	2.420866E-1	2.082484E-2	2.409852E-2	-1.013378E+1	2.222863E-2	2.709402E-2	8.222822E-2	2.655919E-2
10/19/2017  17:43:31.828206	2.471706E-1	1.064948E-2	2.409852E-2	-1.013378E+1	1.712873E-2	6.742135E-3	7.714242E-2	3.673486E-2
10/19/2017  17:43:31.829206	1.248718E+0	-4.613560E-3	1.137250E-2	-1.013378E+1	3.242842E-2	1.691808E-2	6.951371E-2	3.164702E-2
10/19/2017  17:43:31.830206	1.258886E+0	1.828100E-2	1.391770E-2	-1.014396E+1	2.732853E-2	3.726996E-2	6.951371E-2	2.655919E-2
10/19/2017  17:43:31.831206	5.967806E-4	5.561801E-3	2.409852E-2	-1.012869E+1	1.202884E-2	2.455003E-2	8.222822E-2	3.164702E-2
10/19/2017  17:43:31.832206	-8.103005E-1	8.105642E-3	1.900811E-2	-1.013887E+1	2.477858E-2	-3.433805E-3	7.459952E-2	2.147136E-2
10/19/2017  17:43:31.833206	-3.832449E-1	-4.613560E-3	1.391770E-2	-1.015160E+1	2.222863E-2	1.946206E-2	6.442791E-2	2.910311E-2
10/19/2017  17:43:31.834206	1.251547E-1	1.828100E-2	1.646291E-2	-1.014142E+1	2.222863E-2	2.963800E-2	7.714242E-2	2.910311E-2
10/19/2017  17:43:31.835206	9.385939E-1	1.573716E-2	1.646291E-2	-1.013632E+1	1.457878E-2	1.437409E-2	7.968532E-2	4.182269E-2
10/19/2017  17:43:31.836206	1.607426E-1	1.319332E-2	1.137250E-2	-1.013632E+1	2.732853E-2	1.946206E-2	6.697081E-2	3.164702E-2
10/19/2017  17:43:31.837206	-2.764810E-1	1.573716E-2	1.646291E-2	-1.013123E+1	1.712873E-2	1.946206E-2	7.205661E-2	2.655919E-2
10/19/2017  17:43:31.838206	-2.027630E-1	1.064948E-2	1.900811E-2	-1.014142E+1	1.967868E-2	1.946206E-2	7.459952E-2	2.910311E-2
10/19/2017  17:43:31.839206	-7.820515E-2	1.828100E-2	2.155331E-2	-1.013887E+1	2.987847E-2	1.946206E-2	6.951371E-2	3.419094E-2
10/19/2017  17:43:31.840206	-4.976348E-1	1.573716E-2	2.664372E-2	-1.013887E+1	1.967868E-2	3.218199E-2	7.205661E-2	2.147136E-2
10/19/2017  17:43:31.841206	-6.425286E-1	1.319332E-2	1.900811E-2	-1.012614E+1	1.712873E-2	1.437409E-2	7.968532E-2	2.147136E-2
10/19/2017  17:43:31.842206	1.353227E-1	5.561801E-3	1.137250E-2	-1.013123E+1	2.732853E-2	1.437409E-2	6.951371E-2	3.419094E-2
10/19/2017  17:43:31.843206	-3.171529E-1	2.082484E-2	3.736893E-3	-1.014142E+1	2.222863E-2	2.963800E-2	7.205661E-2	2.401527E-2
10/19/2017  17:43:31.844206	1.327807E-1	1.828100E-2	2.155331E-2	-1.013632E+1	1.457878E-2	1.946206E-2	9.239983E-2	3.419094E-2
10/19/2017  17:43:31.845206	7.937001E-1	1.319332E-2	2.409852E-2	-1.013632E+1	2.477858E-2	1.946206E-2	7.459952E-2	3.673486E-2
10/19/2017  17:43:31.846206	-1.973920E-2	8.105642E-3	1.391770E-2	-1.013887E+1	2.987847E-2	2.200605E-2	6.188501E-2	2.655919E-2
10/19/2017  17:43:31.847206	-3.501989E-1	1.828100E-2	3.682453E-2	-1.013887E+1	1.712873E-2	2.963800E-2	7.205661E-2	2.147136E-2
10/19/2017  17:43:31.848206	-1.671751E-1	2.336868E-2	2.155331E-2	-1.014142E+1	1.712873E-2	1.183011E-2	8.477112E-2	3.673486E-2
10/19/2017  17:43:31.849206	8.038681E-1	8.105642E-3	2.155331E-2	-1.012869E+1	3.497837E-2	2.709402E-2	7.459952E-2	4.182269E-2
10/19/2017  17:43:31.850206	1.596971E+0	3.017961E-3	8.827299E-3	-1.014396E+1	2.732853E-2	2.709402E-2	7.205661E-2	2.401527E-2
10/19/2017  17:43:31.851206	8.038681E-1	1.573716E-2	2.664372E-2	-1.014396E+1	1.457878E-2	2.200605E-2	8.477112E-2	2.401527E-2
10/19/2017  17:43:31.852206	-2.281830E-1	1.828100E-2	2.664372E-2	-1.013123E+1	4.378993E-3	1.437409E-2	7.968532E-2	3.927877E-2
10/19/2017  17:43:31.853206	5.827143E-1	1.064948E-2	1.137250E-2	-1.013632E+1	2.732853E-2	1.946206E-2	6.951371E-2	3.927877E-2
10/19/2017  17:43:31.854206	9.843499E-1	1.828100E-2	1.137250E-2	-1.013887E+1	1.457878E-2	2.455003E-2	7.205661E-2	2.147136E-2
10/19/2017  17:43:31.855206	2.802165E-1	1.319332E-2	2.155331E-2	-1.013632E+1	1.457878E-2	1.946206E-2	8.222822E-2	2.655919E-2
10/19/2017  17:43:31.856206	-5.103448E-1	8.105642E-3	1.900811E-2	-1.012359E+1	2.477858E-2	1.437409E-2	6.951371E-2	3.164702E-2
								
10/19/2017  17:43:31.857206	-1.044164E+0	1.319332E-2	2.155331E-2	-1.013378E+1	2.732853E-2	1.946206E-2	7.205661E-2	2.401527E-2
10/19/2017  17:43:31.858206	-1.186516E+0	2.082484E-2	1.900811E-2	-1.014651E+1	2.477858E-2	1.946206E-2	7.714242E-2	2.401527E-2
10/19/2017  17:43:31.859206	8.448270E-2	8.105642E-3	1.391770E-2	-1.012614E+1	1.967868E-2	2.455003E-2	7.205661E-2	3.927877E-2
10/19/2017  17:43:31.860206	4.378204E-1	1.064948E-2	8.827299E-3	-1.013887E+1	2.477858E-2	1.946206E-2	6.951371E-2	2.147136E-2
10/19/2017  17:43:31.861206	-5.662687E-1	1.828100E-2	2.155331E-2	-1.015669E+1	2.477858E-2	2.455003E-2	8.985693E-2	2.401527E-2
10/19/2017  17:43:31.862206	-1.722591E-1	1.319332E-2	3.173413E-2	-1.013632E+1	1.712873E-2	2.455003E-2	7.968532E-2	3.927877E-2
10/19/2017  17:43:31.863206	-2.078470E-1	8.105642E-3	2.155331E-2	-1.013632E+1	2.222863E-2	1.437409E-2	7.205661E-2	2.910311E-2
10/19/2017  17:43:31.864206	1.226127E-1	1.319332E-2	3.736893E-3	-1.014396E+1	2.732853E-2	2.963800E-2	6.951371E-2	2.655919E-2
10/19/2017  17:43:31.865206	3.513925E-1	2.082484E-2	2.664372E-2	-1.014651E+1	1.457878E-2	2.455003E-2	9.239983E-2	3.164702E-2
10/19/2017  17:43:31.866206	6.513482E-1	8.105642E-3	3.173413E-2	-1.013378E+1	1.202884E-2	1.691808E-2	7.968532E-2	3.927877E-2
10/19/2017  17:43:31.867206	9.309679E-1	1.319332E-2	2.155331E-2	-1.013632E+1	2.222863E-2	1.946206E-2	6.951371E-2	2.910311E-2
10/19/2017  17:43:31.868206	1.055526E+0	2.082484E-2	1.900811E-2	-1.014142E+1	1.967868E-2	1.946206E-2	7.205661E-2	2.401527E-2
10/19/2017  17:43:31.869206	-6.295316E-2	4.741205E-4	2.664372E-2	-1.014142E+1	1.457878E-2	2.455003E-2	8.222822E-2	3.164702E-2
10/19/2017  17:43:31.870206	-1.250066E+0	1.319332E-2	2.155331E-2	-1.013632E+1	2.222863E-2	3.472597E-2	7.205661E-2	3.673486E-2
10/19/2017  17:43:31.871206	-6.120247E-1	2.591253E-2	1.137250E-2	-1.013632E+1	3.497837E-2	1.691808E-2	7.205661E-2	3.419094E-2
10/19/2017  17:43:31.872206	8.448270E-2	1.319332E-2	1.900811E-2	-1.014905E+1	1.457878E-2	2.455003E-2	8.222822E-2	2.910311E-2
10/19/2017  17:43:31.873206	9.719269E-2	4.741205E-4	2.155331E-2	-1.014142E+1	1.829045E-3	2.200605E-2	7.205661E-2	3.673486E-2
10/19/2017  17:43:31.874206	-5.662687E-1	1.064948E-2	1.391770E-2	-1.013632E+1	2.732853E-2	2.200605E-2	6.951371E-2	3.419094E-2
10/19/2017  17:43:31.875206	-5.357647E-1	2.082484E-2	1.900811E-2	-1.012869E+1	3.752832E-2	2.709402E-2	7.968532E-2	3.419094E-2
10/19/2017  17:43:31.876206	4.276524E-1	1.064948E-2	1.137250E-2	-1.013123E+1	2.222863E-2	2.455003E-2	7.205661E-2	3.673486E-2
10/19/2017  17:43:31.877206	-6.730326E-1	1.319332E-2	1.137250E-2	-1.013887E+1	2.477858E-2	1.946206E-2	5.934210E-2	2.655919E-2
10/19/2017  17:43:31.878206	2.344606E-1	2.082484E-2	8.827299E-3	-1.015415E+1	2.222863E-2	1.691808E-2	7.205661E-2	2.401527E-2
10/19/2017  17:43:31.879206	1.050442E+0	1.573716E-2	2.918892E-2	-1.013632E+1	1.457878E-2	1.691808E-2	8.222822E-2	4.945444E-2
10/19/2017  17:43:31.880206	8.801280E-1	8.105642E-3	1.137250E-2	-1.011341E+1	2.732853E-2	2.455003E-2	6.442791E-2	2.910311E-2
10/19/2017  17:43:31.881206	5.852563E-1	2.082484E-2	1.137250E-2	-1.014396E+1	2.222863E-2	2.709402E-2	7.205661E-2	1.383961E-2
10/19/2017  17:43:31.882206	1.101282E+0	1.064948E-2	2.409852E-2	-1.014905E+1	1.457878E-2	9.286120E-3	7.205661E-2	4.182269E-2
10/19/2017  17:43:31.883206	2.192086E-1	4.741205E-4	1.900811E-2	-1.013887E+1	2.987847E-2	1.437409E-2	6.697081E-2	2.910311E-2
10/19/2017  17:43:31.884206	-5.306807E-1	1.828100E-2	1.646291E-2	-1.014396E+1	2.477858E-2	2.709402E-2	8.731403E-2	2.401527E-2
10/19/2017  17:43:31.885206	-1.671751E-1	1.319332E-2	3.173413E-2	-1.014396E+1	2.477858E-2	2.455003E-2	8.222822E-2	3.419094E-2
10/19/2017  17:43:31.886206	-5.993147E-1	3.017961E-3	1.391770E-2	-1.013887E+1	2.477858E-2	1.437409E-2	7.205661E-2	3.419094E-2
10/19/2017  17:43:31.887206	-8.992704E-1	1.064948E-2	1.391770E-2	-1.013887E+1	1.712873E-2	1.437409E-2	7.205661E-2	2.655919E-2
10/19/2017  17:43:31.888206	-6.272767E-1	1.828100E-2	2.155331E-2	-1.013887E+1	1.457878E-2	2.455003E-2	8.222822E-2	2.401527E-2
10/19/2017  17:43:31.889206	1.505746E-1	8.105642E-3	1.900811E-2	-1.013378E+1	2.477858E-2	9.286120E-3	7.459952E-2	3.927877E-2
								
10/19/2017  17:43:31.890206	1.045358E+0	4.741205E-4	1.137250E-2	-1.013887E+1	1.967868E-2	2.709402E-2	6.697081E-2	2.655919E-2
10/19/2017  17:43:31.891206	7.939871E-2	1.828100E-2	1.900811E-2	-1.014396E+1	1.967868E-2	9.286120E-3	7.205661E-2	1.892744E-2
10/19/2017  17:43:31.892206	-5.967727E-1	2.845637E-2	2.664372E-2	-1.012869E+1	1.457878E-2	1.437409E-2	7.968532E-2	3.927877E-2
10/19/2017  17:43:31.893206	-2.307250E-1	1.573716E-2	1.391770E-2	-1.013887E+1	2.732853E-2	1.946206E-2	6.951371E-2	3.419094E-2
10/19/2017  17:43:31.894206	6.894782E-1	1.573716E-2	1.646291E-2	-1.013378E+1	2.732853E-2	2.709402E-2	7.714242E-2	2.655919E-2
10/19/2017  17:43:31.895206	9.233419E-1	5.561801E-3	2.155331E-2	-1.013632E+1	1.712873E-2	1.691808E-2	7.459952E-2	3.164702E-2
10/19/2017  17:43:31.896206	5.115383E-1	1.828100E-2	1.900811E-2	-1.013632E+1	1.202884E-2	1.946206E-2	6.442791E-2	2.147136E-2
10/19/2017  17:43:31.897206	2.802165E-1	2.082484E-2	1.900811E-2	-1.013378E+1	2.222863E-2	3.218199E-2	7.205661E-2	2.147136E-2
10/19/2017  17:43:31.898206	1.454906E-1	1.828100E-2	1.900811E-2	-1.013632E+1	1.457878E-2	1.946206E-2	8.222822E-2	2.910311E-2
10/19/2017  17:43:31.899206	-5.993147E-1	8.105642E-3	6.282096E-3	-1.014142E+1	2.222863E-2	1.437409E-2	6.951371E-2	3.673486E-2
10/19/2017  17:43:31.900206	-1.278028E+0	8.105642E-3	2.155331E-2	-1.013887E+1	1.967868E-2	1.946206E-2	7.205661E-2	2.910311E-2
10/19/2017  17:43:31.901206	-3.044429E-1	1.573716E-2	2.664372E-2	-1.012614E+1	1.457878E-2	2.455003E-2	8.731403E-2	2.655919E-2
10/19/2017  17:43:31.902206	-5.840627E-1	1.828100E-2	2.155331E-2	-1.013123E+1	2.222863E-2	1.691808E-2	7.205661E-2	3.673486E-2
10/19/2017  17:43:31.903206	2.929265E-1	1.064948E-2	1.391770E-2	-1.013632E+1	2.732853E-2	2.963800E-2	7.205661E-2	2.910311E-2
10/19/2017  17:43:31.904206	2.344606E-1	1.319332E-2	1.137250E-2	-1.014142E+1	1.457878E-2	2.455003E-2	7.714242E-2	2.401527E-2
10/19/2017  17:43:31.905206	-1.163351E-1	1.064948E-2	2.409852E-2	-1.012869E+1	1.457878E-2	1.691808E-2	7.459952E-2	3.419094E-2
10/19/2017  17:43:31.906206	6.742262E-1	8.105642E-3	1.137250E-2	-1.013887E+1	3.497837E-2	1.946206E-2	6.697081E-2	3.164702E-2
10/19/2017  17:43:31.907206	7.682801E-1	1.064948E-2	2.155331E-2	-1.013887E+1	1.967868E-2	2.455003E-2	7.459952E-2	2.147136E-2
10/19/2017  17:43:31.908206	5.397873E-2	1.319332E-2	1.137250E-2	-1.013632E+1	1.457878E-2	6.742135E-3	7.968532E-2	2.655919E-2
10/19/2017  17:43:31.909206	-1.036251E-1	8.105642E-3	1.900811E-2	-1.013378E+1	1.967868E-2	1.691808E-2	7.459952E-2	3.673486E-2
10/19/2017  17:43:31.910206	6.668872E-2	1.319332E-2	1.391770E-2	-1.014142E+1	3.242842E-2	2.200605E-2	6.951371E-2	2.910311E-2
10/19/2017  17:43:31.911206	-6.803716E-2	3.608789E-2	1.900811E-2	-1.013887E+1	1.202884E-2	2.709402E-2	7.459952E-2	2.910311E-2
10/19/2017  17:43:31.912206	3.364275E-2	1.064948E-2	1.391770E-2	-1.013632E+1	1.712873E-2	1.946206E-2	7.205661E-2	3.673486E-2
10/19/2017  17:43:31.913206	5.967806E-4	1.319332E-2	2.155331E-2	-1.013123E+1	3.242842E-2	1.437409E-2	6.951371E-2	3.164702E-2
10/19/2017  17:43:31.914206	-6.803716E-2	2.082484E-2	2.155331E-2	-1.013632E+1	2.222863E-2	2.963800E-2	7.205661E-2	2.401527E-2
10/19/2017  17:43:31.915206	-1.951370E-1	1.828100E-2	2.409852E-2	-1.013632E+1	3.242842E-2	1.946206E-2	8.477112E-2	3.164702E-2
10/19/2017  17:43:31.916206	-3.146109E-1	1.319332E-2	2.155331E-2	-1.012869E+1	2.222863E-2	1.437409E-2	7.205661E-2	3.164702E-2
10/19/2017  17:43:31.917206	6.183022E-1	8.105642E-3	1.900811E-2	-1.013887E+1	6.928941E-3	1.691808E-2	6.188501E-2	2.147136E-2
10/19/2017  17:43:31.918206	5.572943E-1	1.828100E-2	2.155331E-2	-1.013887E+1	1.712873E-2	2.200605E-2	8.222822E-2	2.655919E-2
10/19/2017  17:43:31.919206	4.889474E-2	1.319332E-2	2.155331E-2	-1.013123E+1	2.477858E-2	1.691808E-2	6.951371E-2	3.419094E-2
10/19/2017  17:43:31.920206	3.259725E-1	1.319332E-2	1.137250E-2	-1.011596E+1	2.477858E-2	2.455003E-2	7.205661E-2	3.419094E-2
10/19/2017  17:43:31.921206	3.183465E-1	1.828100E-2	1.137250E-2	-1.013887E+1	2.222863E-2	1.946206E-2	7.205661E-2	2.655919E-2
10/19/2017  17:43:31.922206	9.719269E-2	1.319332E-2	1.900811E-2	-1.015669E+1	1.712873E-2	1.691808E-2	7.714242E-2	2.910311E-2
								
10/19/2017  17:43:31.923206	2.166666E-1	1.828100E-2	1.646291E-2	-1.013632E+1	2.987847E-2	2.455003E-2	6.442791E-2	3.419094E-2
10/19/2017  17:43:31.924206	-9.571210E-3	1.573716E-2	1.646291E-2	-1.014651E+1	1.457878E-2	2.963800E-2	6.951371E-2	2.147136E-2
10/19/2017  17:43:31.925206	-5.278517E-2	5.561801E-3	2.918892E-2	-1.013632E+1	2.222863E-2	1.437409E-2	7.968532E-2	3.164702E-2
10/19/2017  17:43:31.926206	2.446286E-1	1.064948E-2	1.391770E-2	-1.013887E+1	2.987847E-2	2.200605E-2	5.934210E-2	2.655919E-2
10/19/2017  17:43:31.927206	2.522546E-1	1.828100E-2	3.936974E-2	-1.014142E+1	1.202884E-2	2.455003E-2	7.714242E-2	2.147136E-2
10/19/2017  17:43:31.928206	5.652073E-2	1.573716E-2	2.664372E-2	-1.012614E+1	1.967868E-2	1.183011E-2	7.968532E-2	3.164702E-2
10/19/2017  17:43:31.929206	-1.620911E-1	1.319332E-2	1.137250E-2	-1.013887E+1	3.752832E-2	1.946206E-2	6.697081E-2	2.910311E-2
10/19/2017  17:43:31.930206	3.564765E-1	1.064948E-2	2.155331E-2	-1.014396E+1	1.967868E-2	2.709402E-2	8.222822E-2	2.401527E-2
10/19/2017  17:43:31.931206	1.022767E-1	8.105642E-3	1.900811E-2	-1.013378E+1	1.967868E-2	2.963800E-2	7.459952E-2	3.419094E-2
10/19/2017  17:43:31.932206	-1.798851E-1	3.100021E-2	1.137250E-2	-1.014396E+1	3.752832E-2	2.709402E-2	6.951371E-2	2.147136E-2
10/19/2017  17:43:31.933206	4.635274E-2	1.828100E-2	2.155331E-2	-1.013632E+1	1.457878E-2	2.709402E-2	7.968532E-2	3.673486E-2
10/19/2017  17:43:31.934206	8.702470E-2	5.561801E-3	1.646291E-2	-1.013123E+1	1.712873E-2	1.437409E-2	7.459952E-2	3.164702E-2
10/19/2017  17:43:31.935206	-5.024317E-2	1.319332E-2	8.827299E-3	-1.014905E+1	2.477858E-2	1.691808E-2	7.205661E-2	2.910311E-2
10/19/2017  17:43:31.936206	2.497126E-1	1.573716E-2	1.900811E-2	-1.014396E+1	2.477858E-2	2.963800E-2	8.222822E-2	3.419094E-2
10/19/2017  17:43:31.937206	-2.027630E-1	1.064948E-2	2.155331E-2	-1.012359E+1	1.967868E-2	2.200605E-2	7.459952E-2	3.419094E-2
10/19/2017  17:43:31.938206	1.022767E-1	1.064948E-2	8.827299E-3	-1.014142E+1	2.732853E-2	2.200605E-2	6.951371E-2	2.147136E-2
10/19/2017  17:43:31.939206	1.607426E-1	1.828100E-2	2.155331E-2	-1.015669E+1	1.967868E-2	2.709402E-2	8.222822E-2	2.401527E-2
10/19/2017  17:43:31.940206	9.973469E-2	1.064948E-2	2.918892E-2	-1.013632E+1	1.457878E-2	1.691808E-2	8.222822E-2	4.945444E-2
10/19/2017  17:43:31.941206	5.397873E-2	8.105642E-3	1.391770E-2	-1.011850E+1	2.732853E-2	1.691808E-2	6.442791E-2	3.673486E-2
10/19/2017  17:43:31.942206	5.143673E-2	1.319332E-2	1.137250E-2	-1.014905E+1	2.987847E-2	2.709402E-2	6.951371E-2	2.147136E-2
10/19/2017  17:43:31.943206	1.582006E-1	1.319332E-2	2.664372E-2	-1.014651E+1	1.457878E-2	2.709402E-2	7.205661E-2	3.164702E-2
10/19/2017  17:43:31.944206	2.217506E-1	4.741205E-4	1.900811E-2	-1.013123E+1	9.478889E-3	1.946206E-2	7.968532E-2	3.673486E-2
10/19/2017  17:43:31.945206	2.344606E-1	1.064948E-2	1.137250E-2	-1.012869E+1	2.732853E-2	1.437409E-2	7.459952E-2	3.164702E-2
10/19/2017  17:43:31.946206	-4.671308E-1	1.828100E-2	1.900811E-2	-1.014396E+1	2.477858E-2	2.200605E-2	7.459952E-2	2.147136E-2
10/19/2017  17:43:31.947206	7.177272E-2	1.064948E-2	2.664372E-2	-1.013887E+1	1.457878E-2	2.455003E-2	7.459952E-2	3.419094E-2
10/19/2017  17:43:31.948206	1.048187E-1	1.064948E-2	1.646291E-2	-1.012869E+1	1.457878E-2	1.691808E-2	7.459952E-2	3.419094E-2
10/19/2017  17:43:31.949206	-1.341291E-1	2.082484E-2	1.391770E-2	-1.013887E+1	3.242842E-2	2.455003E-2	6.951371E-2	3.419094E-2
10/19/2017  17:43:31.950206	-4.849248E-1	1.064948E-2	2.155331E-2	-1.013887E+1	2.222863E-2	4.490191E-2	7.459952E-2	2.910311E-2
10/19/2017  17:43:31.951206	-5.532717E-2	-7.157401E-3	2.409852E-2	-1.013887E+1	1.457878E-2	1.437409E-2	7.968532E-2	3.673486E-2
10/19/2017  17:43:31.952206	1.709106E-1	5.561801E-3	1.137250E-2	-1.013378E+1	2.987847E-2	1.437409E-2	6.951371E-2	2.401527E-2
10/19/2017  17:43:31.953206	6.488062E-1	1.319332E-2	1.137250E-2	-1.015415E+1	2.222863E-2	2.200605E-2	7.714242E-2	2.655919E-2
10/19/2017  17:43:31.954206	1.073320E+0	1.064948E-2	2.409852E-2	-1.013887E+1	1.457878E-2	2.200605E-2	7.205661E-2	3.164702E-2
10/19/2017  17:43:31.955206	1.106366E+0	8.105642E-3	1.391770E-2	-1.012614E+1	1.202884E-2	2.455003E-2	7.459952E-2	3.164702E-2
								
10/19/2017  17:43:31.956206	-1.849691E-1	2.082484E-2	6.282096E-3	-1.014905E+1	2.987847E-2	1.691808E-2	7.968532E-2	2.910311E-2
10/19/2017  17:43:31.957206	-6.549516E-2	1.319332E-2	1.900811E-2	-1.013887E+1	1.457878E-2	2.963800E-2	8.477112E-2	2.401527E-2
10/19/2017  17:43:31.958206	-2.002210E-1	1.064948E-2	2.409852E-2	-1.012869E+1	1.457878E-2	1.946206E-2	8.477112E-2	3.673486E-2
10/19/2017  17:43:31.959206	-4.188328E-1	1.064948E-2	6.282096E-3	-1.013123E+1	2.732853E-2	1.183011E-2	7.205661E-2	2.401527E-2
10/19/2017  17:43:31.960206	-2.942750E-1	1.573716E-2	1.646291E-2	-1.014905E+1	2.222863E-2	2.455003E-2	6.951371E-2	2.655919E-2
10/19/2017  17:43:31.961206	-8.941864E-1	8.105642E-3	1.900811E-2	-1.014905E+1	1.712873E-2	1.946206E-2	8.222822E-2	3.673486E-2
10/19/2017  17:43:31.962206	-1.227188E+0	8.105642E-3	1.900811E-2	-1.014651E+1	2.222863E-2	2.709402E-2	7.205661E-2	3.164702E-2
10/19/2017  17:43:31.963206	-1.471220E+0	1.064948E-2	1.646291E-2	-1.014651E+1	2.477858E-2	2.709402E-2	7.714242E-2	2.401527E-2
10/19/2017  17:43:31.964206	4.429044E-1	1.064948E-2	2.409852E-2	-1.014651E+1	1.457878E-2	9.286120E-3	7.459952E-2	3.927877E-2
10/19/2017  17:43:31.965206	8.089520E-1	8.105642E-3	1.646291E-2	-1.012105E+1	2.222863E-2	9.286120E-3	6.951371E-2	3.419094E-2
10/19/2017  17:43:31.966206	1.319894E+0	2.591253E-2	1.391770E-2	-1.014651E+1	2.732853E-2	2.963800E-2	6.188501E-2	2.401527E-2
10/19/2017  17:43:31.967206	8.826700E-1	1.319332E-2	1.137250E-2	-1.014651E+1	1.202884E-2	2.709402E-2	7.205661E-2	3.419094E-2
10/19/2017  17:43:31.968206	-1.137931E-1	5.561801E-3	1.900811E-2	-1.013378E+1	1.967868E-2	1.437409E-2	7.205661E-2	3.419094E-2
10/19/2017  17:43:31.969206	1.251547E-1	1.319332E-2	1.137250E-2	-1.013887E+1	2.732853E-2	2.200605E-2	6.951371E-2	2.655919E-2
10/19/2017  17:43:31.970206	7.072721E-1	1.319332E-2	2.409852E-2	-1.014396E+1	1.457878E-2	2.709402E-2	8.477112E-2	2.147136E-2
10/19/2017  17:43:31.971206	3.971484E-1	8.105642E-3	1.900811E-2	-1.012869E+1	2.477858E-2	2.709402E-2	7.459952E-2	3.419094E-2
10/19/2017  17:43:31.972206	-1.465521E-2	2.591253E-2	1.137250E-2	-1.013632E+1	3.242842E-2	1.946206E-2	7.205661E-2	2.910311E-2
10/19/2017  17:43:31.973206	3.005525E-1	1.573716E-2	1.900811E-2	-1.014142E+1	2.222863E-2	2.963800E-2	7.968532E-2	3.673486E-2
10/19/2017  17:43:31.974206	2.675065E-1	-4.613560E-3	1.900811E-2	-1.013378E+1	9.478889E-3	9.286120E-3	7.459952E-2	3.673486E-2
10/19/2017  17:43:31.975206	2.268346E-1	1.319332E-2	6.282096E-3	-1.013887E+1	2.987847E-2	1.946206E-2	6.697081E-2	2.655919E-2
10/19/2017  17:43:31.976206	2.093276E-2	2.082484E-2	2.155331E-2	-1.014651E+1	2.987847E-2	2.709402E-2	8.222822E-2	3.927877E-2
10/19/2017  17:43:31.977206	3.335985E-1	8.105642E-3	2.409852E-2	-1.012614E+1	2.477858E-2	1.437409E-2	7.459952E-2	3.673486E-2
10/19/2017  17:43:31.978206	6.716842E-1	1.319332E-2	1.137250E-2	-1.013887E+1	2.477858E-2	2.200605E-2	7.205661E-2	1.892744E-2
10/19/2017  17:43:31.979206	-3.832449E-1	1.319332E-2	1.646291E-2	-1.014142E+1	2.477858E-2	2.455003E-2	6.951371E-2	3.673486E-2
10/19/2017  17:43:31.980206	-1.440716E+0	8.105642E-3	2.155331E-2	-1.013123E+1	2.222863E-2	1.437409E-2	7.459952E-2	4.945444E-2
10/19/2017  17:43:31.981206	-1.199226E+0	1.828100E-2	1.137250E-2	-1.012105E+1	2.222863E-2	1.946206E-2	7.205661E-2	2.910311E-2
10/19/2017  17:43:31.982206	-4.239168E-1	1.319332E-2	1.900811E-2	-1.013632E+1	2.477858E-2	1.691808E-2	7.714242E-2	3.164702E-2
10/19/2017  17:43:31.983206	2.773916E+0	8.105642E-3	1.137250E-2	-1.013632E+1	1.967868E-2	1.437409E-2	6.697081E-2	3.673486E-2
10/19/2017  17:43:31.984206	1.330062E+0	1.573716E-2	3.736893E-3	-1.013632E+1	2.222863E-2	3.218199E-2	7.205661E-2	2.655919E-2
10/19/2017  17:43:31.985206	-2.408930E-1	1.828100E-2	2.155331E-2	-1.013887E+1	1.967868E-2	1.946206E-2	8.222822E-2	3.419094E-2
10/19/2017  17:43:31.986206	-7.620025E-1	2.336868E-2	3.173413E-2	-1.013378E+1	2.987847E-2	2.455003E-2	6.951371E-2	2.910311E-2
10/19/2017  17:43:31.987206	6.668872E-2	1.828100E-2	1.646291E-2	-1.014651E+1	1.967868E-2	2.200605E-2	7.205661E-2	2.147136E-2
10/19/2017  17:43:31.988206	4.530724E-1	1.573716E-2	2.409852E-2	-1.013887E+1	6.928941E-3	1.183011E-2	8.222822E-2	3.419094E-2
								
10/19/2017  17:43:31.989206	2.700485E-1	2.082484E-2	1.137250E-2	-1.013887E+1	2.987847E-2	1.946206E-2	6.951371E-2	3.164702E-2
10/19/2017  17:43:31.990206	3.463085E-1	1.828100E-2	2.409852E-2	-1.014142E+1	2.477858E-2	4.490191E-2	7.459952E-2	2.655919E-2
10/19/2017  17:43:31.991206	4.479884E-1	-4.613560E-3	1.646291E-2	-1.012614E+1	1.457878E-2	1.183011E-2	7.205661E-2	3.164702E-2
10/19/2017  17:43:31.992206	3.590185E-1	1.064948E-2	8.827299E-3	-1.014396E+1	2.732853E-2	1.946206E-2	7.205661E-2	1.638352E-2
10/19/2017  17:43:31.993206	-1.214191E-1	5.561801E-3	2.664372E-2	-1.015415E+1	9.478889E-3	1.946206E-2	7.714242E-2	3.164702E-2
10/19/2017  17:43:31.994206	-7.645445E-1	8.105642E-3	1.900811E-2	-1.012869E+1	1.967868E-2	2.709402E-2	7.459952E-2	2.910311E-2
10/19/2017  17:43:31.995206	-1.425464E+0	2.082484E-2	1.391770E-2	-1.013632E+1	3.497837E-2	2.709402E-2	7.459952E-2	3.164702E-2
10/19/2017  17:43:31.996206	-7.492925E-1	1.064948E-2	2.155331E-2	-1.013378E+1	1.712873E-2	1.183011E-2	7.714242E-2	4.182269E-2
10/19/2017  17:43:31.997206	1.022767E-1	1.319332E-2	1.137250E-2	-1.014142E+1	2.477858E-2	1.946206E-2	6.442791E-2	3.419094E-2
10/19/2017  17:43:31.998206	2.293766E-1	1.573716E-2	1.137250E-2	-1.012869E+1	1.967868E-2	2.455003E-2	7.968532E-2	3.164702E-2
10/19/2017  17:43:31.999206	3.768124E-1	1.319332E-2	1.900811E-2	-1.013887E+1	2.222863E-2	1.437409E-2	7.459952E-2	5.199836E-2
10/19/2017  17:43:32.000206	2.522546E-1	1.064948E-2	1.900811E-2	-1.011850E+1	1.712873E-2	2.200605E-2	6.951371E-2	2.910311E-2
10/19/2017  17:43:32.001206	-2.383510E-1	1.064948E-2	1.646291E-2	-1.013632E+1	1.202884E-2	1.691808E-2	7.459952E-2	3.164702E-2
10/19/2017  17:43:32.002206	-6.549516E-2	1.573716E-2	1.391770E-2	-1.014142E+1	2.732853E-2	1.691808E-2	7.205661E-2	3.419094E-2
10/19/2017  17:43:32.003206	-1.544651E-1	2.336868E-2	2.409852E-2	-1.014396E+1	2.222863E-2	1.691808E-2	7.459952E-2	2.910311E-2
10/19/2017  17:43:32.004206	9.210870E-2	1.319332E-2	1.900811E-2	-1.013632E+1	1.967868E-2	1.691808E-2	6.697081E-2	3.673486E-2
10/19/2017  17:43:32.005206	2.141246E-1	1.319332E-2	6.282096E-3	-1.013632E+1	2.477858E-2	1.691808E-2	6.951371E-2	2.655919E-2
10/19/2017  17:43:32.006206	7.987841E-1	2.082484E-2	2.664372E-2	-1.014142E+1	1.967868E-2	2.963800E-2	9.239983E-2	3.164702E-2
10/19/2017  17:43:32.007206	7.733641E-1	5.561801E-3	3.936974E-2	-1.013632E+1	1.967868E-2	2.455003E-2	7.205661E-2	2.910311E-2
10/19/2017  17:43:32.008206	-1.519231E-1	1.828100E-2	1.646291E-2	-1.012869E+1	1.967868E-2	1.946206E-2	7.459952E-2	2.147136E-2
10/19/2017  17:43:32.009206	-6.295316E-2	1.319332E-2	2.155331E-2	-1.013887E+1	1.712873E-2	6.742135E-3	7.968532E-2	2.910311E-2
10/19/2017  17:43:32.010206	-7.314986E-1	-4.613560E-3	1.900811E-2	-1.013887E+1	1.712873E-2	1.437409E-2	7.205661E-2	3.419094E-2
10/19/2017  17:43:32.011206	-5.786917E-2	1.573716E-2	1.391770E-2	-1.014396E+1	2.732853E-2	3.726996E-2	6.951371E-2	2.655919E-2
10/19/2017  17:43:32.012206	-1.300906E+0	2.845637E-2	2.155331E-2	-1.013632E+1	2.477858E-2	1.946206E-2	7.968532E-2	2.910311E-2
10/19/2017  17:43:32.013206	3.110075E-2	1.064948E-2	1.900811E-2	-1.013887E+1	1.967868E-2	9.286120E-3	7.459952E-2	2.147136E-2
10/19/2017  17:43:32.014206	1.019938E+0	8.105642E-3	1.900811E-2	-1.014396E+1	2.222863E-2	2.709402E-2	6.951371E-2	2.655919E-2
10/19/2017  17:43:32.015206	1.482581E+0	1.064948E-2	2.155331E-2	-1.013123E+1	1.202884E-2	1.691808E-2	7.968532E-2	3.164702E-2
10/19/2017  17:43:32.016206	1.012312E+0	1.828100E-2	2.155331E-2	-1.012869E+1	4.262821E-2	1.691808E-2	7.205661E-2	3.419094E-2
10/19/2017  17:43:32.017206	9.030060E-1	2.336868E-2	2.155331E-2	-1.013632E+1	2.222863E-2	2.963800E-2	7.459952E-2	2.401527E-2
10/19/2017  17:43:32.018206	4.301944E-1	3.017961E-3	2.155331E-2	-1.013123E+1	1.712873E-2	1.691808E-2	7.968532E-2	2.401527E-2
10/19/2017  17:43:32.019206	2.929265E-1	1.319332E-2	6.282096E-3	-1.014905E+1	2.222863E-2	1.946206E-2	6.188501E-2	3.164702E-2
10/19/2017  17:43:32.020206	9.207999E-1	1.573716E-2	1.900811E-2	-1.013887E+1	2.222863E-2	1.946206E-2	6.951371E-2	3.927877E-2
10/19/2017  17:43:32.021206	-9.856983E-1	8.105642E-3	2.155331E-2	-1.011596E+1	2.222863E-2	1.946206E-2	7.459952E-2	3.419094E-2
								
10/19/2017  17:43:32.022206	7.685671E-2	1.828100E-2	8.827299E-3	-1.014651E+1	2.477858E-2	2.709402E-2	6.951371E-2	1.638352E-2
10/19/2017  17:43:32.023206	-3.499119E-2	1.573716E-2	2.918892E-2	-1.014905E+1	1.712873E-2	1.437409E-2	7.968532E-2	3.164702E-2
10/19/2017  17:43:32.024206	-3.196949E-1	4.741205E-4	2.409852E-2	-1.013378E+1	1.967868E-2	1.946206E-2	7.205661E-2	2.910311E-2
10/19/2017  17:43:32.025206	-9.854113E-2	1.828100E-2	2.155331E-2	-1.013887E+1	2.222863E-2	2.200605E-2	7.968532E-2	2.655919E-2
10/19/2017  17:43:32.026206	-1.417551E-1	2.082484E-2	2.155331E-2	-1.013887E+1	1.712873E-2	1.437409E-2	7.968532E-2	3.164702E-2
10/19/2017  17:43:32.027206	-1.671751E-1	4.741205E-4	1.900811E-2	-1.014396E+1	2.222863E-2	1.691808E-2	7.205661E-2	3.673486E-2
10/19/2017  17:43:32.028206	-7.566315E-2	2.082484E-2	1.191689E-3	-1.014142E+1	1.457878E-2	2.455003E-2	7.205661E-2	2.401527E-2
10/19/2017  17:43:32.029206	-1.239611E-1	1.828100E-2	1.646291E-2	-1.013378E+1	2.222863E-2	1.946206E-2	8.222822E-2	3.164702E-2
10/19/2017  17:43:32.030206	-4.007518E-2	1.319332E-2	1.137250E-2	-1.013887E+1	2.987847E-2	1.691808E-2	6.697081E-2	3.164702E-2
10/19/2017  17:43:32.031206	1.099027E-1	8.105642E-3	2.409852E-2	-1.013887E+1	1.712873E-2	2.963800E-2	7.205661E-2	2.147136E-2
10/19/2017  17:43:32.032206	-3.019009E-1	1.319332E-2	1.900811E-2	-1.013123E+1	2.222863E-2	9.286120E-3	7.459952E-2	2.655919E-2
10/19/2017  17:43:32.033206	-1.595491E-1	5.561801E-3	1.646291E-2	-1.014651E+1	2.987847E-2	2.963800E-2	6.697081E-2	2.910311E-2
10/19/2017  17:43:32.034206	6.668872E-2	1.064948E-2	2.664372E-2	-1.013123E+1	1.457878E-2	2.455003E-2	7.714242E-2	3.164702E-2
10/19/2017  17:43:32.035206	-5.891467E-1	8.105642E-3	1.137250E-2	-1.011596E+1	1.967868E-2	1.183011E-2	6.188501E-2	3.927877E-2
10/19/2017  17:43:32.036206	-8.509724E-1	1.828100E-2	1.137250E-2	-1.014905E+1	2.732853E-2	2.709402E-2	7.205661E-2	2.401527E-2
10/19/2017  17:43:32.037206	-2.739390E-1	1.064948E-2	2.155331E-2	-1.014142E+1	6.928941E-3	2.200605E-2	7.714242E-2	2.655919E-2
10/19/2017  17:43:32.038206	6.081342E-1	8.105642E-3	1.900811E-2	-1.012105E+1	2.477858E-2	1.437409E-2	7.968532E-2	3.673486E-2
10/19/2017  17:43:32.039206	9.385939E-1	1.319332E-2	8.827299E-3	-1.014142E+1	2.987847E-2	2.709402E-2	6.951371E-2	1.129569E-2
10/19/2017  17:43:32.040206	4.174844E-1	1.319332E-2	1.900811E-2	-1.015415E+1	1.457878E-2	1.691808E-2	7.714242E-2	3.164702E-2
10/19/2017  17:43:32.041206	3.361405E-1	-2.069720E-3	1.900811E-2	-1.013378E+1	1.967868E-2	2.200605E-2	7.459952E-2	2.147136E-2
10/19/2017  17:43:32.042206	1.556586E-1	1.319332E-2	1.900811E-2	-1.015669E+1	1.967868E-2	9.286120E-3	7.968532E-2	2.147136E-2
10/19/2017  17:43:32.043206	2.601676E-2	2.082484E-2	2.918892E-2	-1.013887E+1	2.222863E-2	1.946206E-2	8.222822E-2	2.910311E-2
10/19/2017  17:43:32.044206	1.358024E+0	1.064948E-2	1.900811E-2	-1.013123E+1	1.967868E-2	1.691808E-2	8.222822E-2	3.673486E-2
10/19/2017  17:43:32.045206	-4.007518E-2	8.105642E-3	1.391770E-2	-1.014142E+1	3.242842E-2	2.455003E-2	6.951371E-2	2.147136E-2
10/19/2017  17:43:32.046206	8.267460E-1	1.573716E-2	2.409852E-2	-1.013887E+1	1.967868E-2	1.946206E-2	7.968532E-2	3.419094E-2
10/19/2017  17:43:32.047206	-3.959549E-1	1.064948E-2	2.664372E-2	-1.013887E+1	1.967868E-2	1.691808E-2	7.459952E-2	2.910311E-2
10/19/2017  17:43:32.048206	-8.382625E-1	1.573716E-2	1.646291E-2	-1.014142E+1	1.967868E-2	2.709402E-2	7.714242E-2	2.910311E-2
10/19/2017  17:43:32.049206	-9.755303E-1	1.319332E-2	1.191689E-3	-1.014396E+1	1.712873E-2	1.946206E-2	7.459952E-2	3.419094E-2
10/19/2017  17:43:32.050206	5.089963E-1	1.064948E-2	1.137250E-2	-1.014142E+1	2.987847E-2	2.455003E-2	7.205661E-2	3.419094E-2
10/19/2017  17:43:32.051206	4.454464E-1	1.319332E-2	2.155331E-2	-1.014142E+1	2.222863E-2	2.455003E-2	7.205661E-2	3.419094E-2
10/19/2017  17:43:32.052206	1.785366E-1	2.082484E-2	1.900811E-2	-1.014142E+1	2.477858E-2	1.946206E-2	7.205661E-2	3.419094E-2
10/19/2017  17:43:32.053206	-3.324049E-1	1.064948E-2	8.827299E-3	-1.013887E+1	2.732853E-2	1.946206E-2	6.697081E-2	1.892744E-2
10/19/2017  17:43:32.054206	-6.145667E-1	3.017961E-3	1.391770E-2	-1.014651E+1	1.202884E-2	1.946206E-2	7.205661E-2	3.164702E-2
								
10/19/2017  17:43:32.055206	6.414672E-2	8.105642E-3	1.646291E-2	-1.013887E+1	2.477858E-2	1.437409E-2	7.714242E-2	3.419094E-2
10/19/2017  17:43:32.056206	5.191643E-1	1.573716E-2	1.137250E-2	-1.013632E+1	4.007827E-2	2.709402E-2	7.205661E-2	1.892744E-2
10/19/2017  17:43:32.057206	3.437665E-1	2.082484E-2	2.155331E-2	-1.014396E+1	1.712873E-2	2.963800E-2	7.968532E-2	2.401527E-2
10/19/2017  17:43:32.058206	1.556586E-1	4.741205E-4	1.646291E-2	-1.013378E+1	1.457878E-2	1.437409E-2	6.951371E-2	2.655919E-2
10/19/2017  17:43:32.059206	4.479884E-1	1.319332E-2	1.191689E-3	-1.014905E+1	2.732853E-2	1.691808E-2	7.968532E-2	2.910311E-2
10/19/2017  17:43:32.060206	2.601676E-2	1.828100E-2	1.900811E-2	-1.013887E+1	2.477858E-2	2.200605E-2	7.459952E-2	4.436661E-2
10/19/2017  17:43:32.061206	-6.349026E-1	5.561801E-3	1.900811E-2	-1.011341E+1	2.222863E-2	1.946206E-2	7.714242E-2	3.419094E-2
10/19/2017  17:43:32.062206	-1.875110E-1	1.319332E-2	1.137250E-2	-1.014142E+1	2.222863E-2	1.946206E-2	6.442791E-2	2.910311E-2
10/19/2017  17:43:32.063206	3.138778E-3	2.082484E-2	1.391770E-2	-1.013632E+1	2.222863E-2	1.946206E-2	6.951371E-2	3.164702E-2
10/19/2017  17:43:32.064206	3.208885E-1	5.561801E-3	2.155331E-2	-1.013632E+1	2.477858E-2	2.455003E-2	7.968532E-2	4.182269E-2
10/19/2017  17:43:32.065206	2.675065E-1	1.319332E-2	1.137250E-2	-1.013632E+1	2.477858E-2	2.200605E-2	7.714242E-2	2.401527E-2
10/19/2017  17:43:32.066206	6.386382E-1	3.100021E-2	1.646291E-2	-1.014905E+1	2.477858E-2	2.455003E-2	7.459952E-2	2.910311E-2
10/19/2017  17:43:32.067206	3.005525E-1	1.064948E-2	1.646291E-2	-1.013887E+1	1.967868E-2	2.455003E-2	6.697081E-2	3.673486E-2
10/19/2017  17:43:32.068206	2.802165E-1	1.828100E-2	6.282096E-3	-1.013887E+1	1.967868E-2	1.946206E-2	7.205661E-2	2.910311E-2
10/19/2017  17:43:32.069206	-6.094827E-1	2.336868E-2	1.900811E-2	-1.014651E+1	2.732853E-2	2.709402E-2	7.968532E-2	2.655919E-2
10/19/2017  17:43:32.070206	-3.244919E-2	1.064948E-2	1.646291E-2	-1.013632E+1	2.477858E-2	2.963800E-2	7.205661E-2	3.927877E-2
10/19/2017  17:43:32.071206	3.590185E-1	4.741205E-4	1.137250E-2	-1.013887E+1	2.732853E-2	1.946206E-2	6.951371E-2	2.910311E-2
10/19/2017  17:43:32.072206	-7.566315E-2	1.828100E-2	1.900811E-2	-1.014651E+1	1.967868E-2	2.455003E-2	7.205661E-2	1.638352E-2
10/19/2017  17:43:32.073206	-2.408930E-1	2.082484E-2	2.664372E-2	-1.013378E+1	1.967868E-2	1.437409E-2	7.968532E-2	3.673486E-2
10/19/2017  17:43:32.074206	3.717284E-1	1.064948E-2	1.646291E-2	-1.013887E+1	2.477858E-2	1.946206E-2	6.697081E-2	3.164702E-2
10/19/2017  17:43:32.075206	2.547966E-1	4.741205E-4	1.137250E-2	-1.013887E+1	2.477858E-2	2.455003E-2	7.459952E-2	2.147136E-2
10/19/2017  17:43:32.076206	-3.705349E-1	1.064948E-2	1.900811E-2	-1.014651E+1	1.457878E-2	2.200605E-2	7.714242E-2	3.164702E-2
10/19/2017  17:43:32.077206	-9.856983E-1	1.573716E-2	1.137250E-2	-1.013632E+1	1.202884E-2	1.946206E-2	6.951371E-2	3.673486E-2
10/19/2017  17:43:32.078206	-1.067042E+0	2.082484E-2	2.155331E-2	-1.014142E+1	2.222863E-2	2.963800E-2	7.714242E-2	2.655919E-2
10/19/2017  17:43:32.079206	-1.137931E-1	5.561801E-3	2.664372E-2	-1.014142E+1	1.457878E-2	1.183011E-2	8.222822E-2	3.164702E-2
10/19/2017  17:43:32.080206	1.167374E+0	1.064948E-2	6.282096E-3	-1.015415E+1	3.242842E-2	1.946206E-2	6.951371E-2	2.910311E-2
10/19/2017  17:43:32.081206	8.852120E-1	1.828100E-2	1.900811E-2	-1.014142E+1	1.967868E-2	3.218199E-2	7.714242E-2	2.147136E-2
10/19/2017  17:43:32.082206	5.649203E-1	8.105642E-3	2.155331E-2	-1.010323E+1	1.712873E-2	1.183011E-2	7.714242E-2	3.673486E-2
10/19/2017  17:43:32.083206	2.420866E-1	2.082484E-2	1.137250E-2	-1.013887E+1	2.987847E-2	1.946206E-2	6.951371E-2	2.147136E-2
10/19/2017  17:43:32.084206	-6.549516E-2	1.828100E-2	1.646291E-2	-1.014142E+1	1.967868E-2	2.709402E-2	6.951371E-2	2.401527E-2
10/19/2017  17:43:32.085206	1.861626E-1	-2.069720E-3	3.736893E-3	-1.013123E+1	1.712873E-2	9.286120E-3	7.714242E-2	3.927877E-2
10/19/2017  17:43:32.086206	2.522546E-1	1.064948E-2	1.900811E-2	-1.013887E+1	2.477858E-2	2.455003E-2	8.222822E-2	3.419094E-2
10/19/2017  17:43:32.087206	2.370026E-1	1.319332E-2	3.427933E-2	-1.013887E+1	2.477858E-2	2.709402E-2	8.222822E-2	3.164702E-2
								
10/19/2017  17:43:32.088206	6.160473E-2	5.561801E-3	1.646291E-2	-1.013378E+1	2.222863E-2	1.946206E-2	7.205661E-2	3.164702E-2
10/19/2017  17:43:32.089206	-3.171529E-1	1.573716E-2	8.827299E-3	-1.014905E+1	3.497837E-2	2.963800E-2	6.951371E-2	2.147136E-2
10/19/2017  17:43:32.090206	-3.756189E-1	1.319332E-2	2.664372E-2	-1.014142E+1	1.712873E-2	2.455003E-2	7.714242E-2	3.419094E-2
10/19/2017  17:43:32.091206	4.022324E-1	8.105642E-3	1.646291E-2	-1.013887E+1	2.222863E-2	3.726996E-2	6.697081E-2	3.673486E-2
10/19/2017  17:43:32.092206	5.700043E-1	3.608789E-2	1.900811E-2	-1.013887E+1	9.478889E-3	2.200605E-2	7.968532E-2	2.655919E-2
10/19/2017  17:43:32.093206	1.658266E-1	8.105642E-3	1.646291E-2	-1.013632E+1	1.967868E-2	1.437409E-2	7.714242E-2	3.673486E-2
10/19/2017  17:43:32.094206	2.497126E-1	1.573716E-2	1.137250E-2	-1.014396E+1	1.967868E-2	2.963800E-2	6.188501E-2	2.910311E-2
10/19/2017  17:43:32.095206	-7.057916E-2	1.828100E-2	2.664372E-2	-1.015415E+1	1.712873E-2	2.709402E-2	8.222822E-2	3.164702E-2
10/19/2017  17:43:32.096206	1.330677E-2	8.105642E-3	1.900811E-2	-1.013378E+1	3.497837E-2	1.183011E-2	7.714242E-2	4.182269E-2
10/19/2017  17:43:32.097206	6.310122E-1	1.319332E-2	1.900811E-2	-1.014142E+1	2.222863E-2	2.455003E-2	7.205661E-2	2.910311E-2
10/19/2017  17:43:32.098206	2.090406E-1	1.319332E-2	2.155331E-2	-1.014142E+1	2.987847E-2	2.200605E-2	8.222822E-2	2.147136E-2
10/19/2017  17:43:32.099206	4.381074E-2	1.064948E-2	8.827299E-3	-1.014905E+1	3.242842E-2	1.946206E-2	7.205661E-2	3.164702E-2
10/19/2017  17:43:32.100206	-2.383510E-1	2.082484E-2	1.900811E-2	-1.014651E+1	1.457878E-2	2.963800E-2	8.477112E-2	3.419094E-2
10/19/2017  17:43:32.101206	-2.434350E-1	1.319332E-2	2.664372E-2	-1.012869E+1	1.457878E-2	1.691808E-2	8.477112E-2	3.927877E-2
10/19/2017  17:43:32.102206	-4.900088E-1	8.105642E-3	8.827299E-3	-1.013887E+1	2.477858E-2	1.946206E-2	6.697081E-2	2.910311E-2
10/19/2017  17:43:32.103206	-1.107714E+0	1.573716E-2	1.900811E-2	-1.014905E+1	2.222863E-2	1.946206E-2	6.188501E-2	2.401527E-2
10/19/2017  17:43:32.104206	-2.713970E-1	1.064948E-2	1.900811E-2	-1.013123E+1	1.457878E-2	1.946206E-2	7.459952E-2	3.673486E-2
10/19/2017  17:43:32.105206	-2.739390E-1	1.064948E-2	1.137250E-2	-1.013887E+1	2.477858E-2	2.709402E-2	7.205661E-2	2.401527E-2
10/19/2017  17:43:32.106206	-5.891467E-1	2.845637E-2	1.900811E-2	-1.014142E+1	1.457878E-2	2.200605E-2	7.968532E-2	2.655919E-2
10/19/2017  17:43:32.107206	8.194071E-2	1.064948E-2	1.900811E-2	-1.013632E+1	2.732853E-2	1.691808E-2	6.188501E-2	3.419094E-2
10/19/2017  17:43:32.108206	1.180084E+0	1.064948E-2	8.827299E-3	-1.013378E+1	2.477858E-2	2.200605E-2	6.697081E-2	2.655919E-2
10/19/2017  17:43:32.109206	1.050442E+0	1.573716E-2	1.646291E-2	-1.012869E+1	2.732853E-2	1.946206E-2	7.205661E-2	2.910311E-2
10/19/2017  17:43:32.110206	-2.027630E-1	8.105642E-3	2.155331E-2	-1.013378E+1	2.477858E-2	1.946206E-2	7.459952E-2	4.182269E-2
10/19/2017  17:43:32.111206	5.652073E-2	1.573716E-2	1.137250E-2	-1.013887E+1	2.477858E-2	1.946206E-2	7.205661E-2	2.655919E-2
10/19/2017  17:43:32.112206	-1.392131E-1	1.573716E-2	1.391770E-2	-1.014396E+1	1.712873E-2	2.455003E-2	8.222822E-2	2.401527E-2
10/19/2017  17:43:32.113206	4.047744E-1	1.828100E-2	1.646291E-2	-1.013378E+1	2.732853E-2	2.200605E-2	7.459952E-2	2.655919E-2
10/19/2017  17:43:32.114206	-3.247789E-1	1.319332E-2	1.646291E-2	-1.013632E+1	2.222863E-2	2.709402E-2	7.205661E-2	2.910311E-2
10/19/2017  17:43:32.115206	-1.039080E+0	1.319332E-2	2.664372E-2	-1.013123E+1	6.928941E-3	1.946206E-2	8.222822E-2	2.401527E-2
10/19/2017  17:43:32.116206	-9.854113E-2	1.064948E-2	1.391770E-2	-1.013632E+1	2.222863E-2	1.946206E-2	7.459952E-2	3.164702E-2
10/19/2017  17:43:32.117206	1.185168E+0	2.336868E-2	2.155331E-2	-1.014396E+1	2.732853E-2	2.709402E-2	7.205661E-2	3.419094E-2
10/19/2017  17:43:32.118206	1.553757E+0	5.561801E-3	3.173413E-2	-1.012869E+1	1.457878E-2	2.455003E-2	8.477112E-2	3.673486E-2
10/19/2017  17:43:32.119206	8.242040E-1	1.064948E-2	6.282096E-3	-1.013378E+1	1.967868E-2	1.691808E-2	7.205661E-2	4.691052E-2
10/19/2017  17:43:32.120206	-2.434350E-1	1.828100E-2	2.155331E-2	-1.014905E+1	2.477858E-2	2.200605E-2	6.951371E-2	2.401527E-2
								
10/19/2017  17:43:32.121206	-4.925508E-1	1.064948E-2	1.646291E-2	-1.013887E+1	1.967868E-2	1.946206E-2	8.222822E-2	2.655919E-2
10/19/2017  17:43:32.122206	-3.120689E-1	5.561801E-3	1.900811E-2	-1.011596E+1	1.967868E-2	1.691808E-2	7.205661E-2	2.910311E-2
10/19/2017  17:43:32.123206	-5.024317E-2	1.828100E-2	1.137250E-2	-1.014142E+1	1.712873E-2	1.691808E-2	6.951371E-2	3.164702E-2
10/19/2017  17:43:32.124206	2.242926E-1	1.319332E-2	1.646291E-2	-1.015415E+1	1.202884E-2	2.200605E-2	6.951371E-2	2.910311E-2
10/19/2017  17:43:32.125206	2.141246E-1	4.741205E-4	1.137250E-2	-1.012614E+1	2.732853E-2	1.183011E-2	6.697081E-2	3.164702E-2
10/19/2017  17:43:32.126206	2.268346E-1	2.591253E-2	1.391770E-2	-1.014142E+1	2.732853E-2	2.709402E-2	5.934210E-2	2.910311E-2
10/19/2017  17:43:32.127206	-2.612290E-1	1.319332E-2	3.936974E-2	-1.013123E+1	2.477858E-2	2.963800E-2	7.968532E-2	3.419094E-2
10/19/2017  17:43:32.128206	-1.544651E-1	1.573716E-2	1.900811E-2	-1.012869E+1	2.477858E-2	1.183011E-2	7.205661E-2	3.673486E-2
10/19/2017  17:43:32.129206	7.454021E-1	1.828100E-2	1.391770E-2	-1.014142E+1	1.457878E-2	1.946206E-2	7.459952E-2	2.147136E-2
10/19/2017  17:43:32.130206	3.488505E-1	1.828100E-2	2.664372E-2	-1.014142E+1	1.967868E-2	1.946206E-2	8.222822E-2	3.419094E-2
10/19/2017  17:43:32.131206	-5.459327E-1	1.064948E-2	2.155331E-2	-1.013123E+1	2.477858E-2	2.963800E-2	7.205661E-2	3.419094E-2
10/19/2017  17:43:32.132206	-7.594605E-1	5.561801E-3	1.137250E-2	-1.013887E+1	3.497837E-2	2.455003E-2	7.205661E-2	2.147136E-2
10/19/2017  17:43:32.133206	1.454906E-1	1.828100E-2	2.155331E-2	-1.014651E+1	2.477858E-2	2.709402E-2	7.968532E-2	2.401527E-2
10/19/2017  17:43:32.134206	-2.663130E-1	4.741205E-4	2.664372E-2	-1.014651E+1	6.928941E-3	1.183011E-2	7.714242E-2	3.673486E-2
10/19/2017  17:43:32.135206	-1.049248E+0	1.064948E-2	1.391770E-2	-1.013378E+1	2.987847E-2	1.691808E-2	7.205661E-2	3.164702E-2
10/19/2017  17:43:32.136206	-6.549516E-2	1.828100E-2	1.137250E-2	-1.013378E+1	2.732853E-2	2.455003E-2	6.951371E-2	3.164702E-2
10/19/2017  17:43:32.137206	2.232471E+0	2.082484E-2	2.409852E-2	-1.013632E+1	1.712873E-2	1.437409E-2	7.714242E-2	2.655919E-2
10/19/2017  17:43:32.138206	4.301944E-1	5.561801E-3	1.646291E-2	-1.013378E+1	9.478889E-3	1.437409E-2	6.951371E-2	2.910311E-2
10/19/2017  17:43:32.139206	-5.230547E-1	1.064948E-2	1.137250E-2	-1.012869E+1	2.732853E-2	1.946206E-2	7.205661E-2	2.655919E-2
10/19/2017  17:43:32.140206	-7.289566E-1	1.828100E-2	2.664372E-2	-1.014651E+1	1.712873E-2	2.709402E-2	7.714242E-2	3.673486E-2
10/19/2017  17:43:32.141206	5.115383E-1	1.064948E-2	2.664372E-2	-1.011596E+1	2.222863E-2	2.455003E-2	8.477112E-2	3.673486E-2
10/19/2017  17:43:32.142206	4.889474E-2	8.105642E-3	1.137250E-2	-1.013887E+1	2.477858E-2	1.946206E-2	6.951371E-2	3.164702E-2
10/19/2017  17:43:32.143206	-2.968170E-1	1.828100E-2	1.646291E-2	-1.015669E+1	2.222863E-2	1.691808E-2	6.951371E-2	2.655919E-2
10/19/2017  17:43:32.144206	3.869804E-1	5.561801E-3	2.409852E-2	-1.013632E+1	2.987847E-2	1.946206E-2	7.459952E-2	2.910311E-2
10/19/2017  17:43:32.145206	1.096198E+0	1.064948E-2	1.646291E-2	-1.013378E+1	2.222863E-2	1.691808E-2	7.205661E-2	3.673486E-2
10/19/2017  17:43:32.146206	9.973469E-2	1.064948E-2	1.646291E-2	-1.014142E+1	3.242842E-2	2.455003E-2	6.697081E-2	2.401527E-2
10/19/2017  17:43:32.147206	-5.510167E-1	1.319332E-2	2.664372E-2	-1.014396E+1	1.712873E-2	2.709402E-2	8.222822E-2	3.164702E-2
10/19/2017  17:43:32.148206	-1.720336E+0	1.064948E-2	3.173413E-2	-1.013887E+1	2.222863E-2	2.455003E-2	7.459952E-2	3.673486E-2
10/19/2017  17:43:32.149206	-1.705084E+0	2.082484E-2	1.391770E-2	-1.013887E+1	2.987847E-2	1.946206E-2	7.205661E-2	2.910311E-2
10/19/2017  17:43:32.150206	-3.171529E-1	1.573716E-2	1.391770E-2	-1.015160E+1	2.222863E-2	2.709402E-2	7.714242E-2	2.401527E-2
10/19/2017  17:43:32.151206	1.342772E+0	4.741205E-4	2.664372E-2	-1.013378E+1	9.478889E-3	1.691808E-2	7.714242E-2	2.910311E-2
10/19/2017  17:43:32.152206	1.685941E+0	8.105642E-3	1.391770E-2	-1.012869E+1	2.222863E-2	2.455003E-2	7.968532E-2	2.910311E-2
10/19/2017  17:43:32.153206	1.058068E+0	4.741205E-4	1.646291E-2	-1.014396E+1	2.732853E-2	1.946206E-2	7.968532E-2	2.910311E-2
								
10/19/2017  17:43:32.154206	-2.027630E-1	1.064948E-2	2.918892E-2	-1.013632E+1	1.712873E-2	1.946206E-2	7.968532E-2	3.164702E-2
10/19/2017  17:43:32.155206	-2.180150E-1	-4.613560E-3	1.900811E-2	-1.012869E+1	1.202884E-2	1.437409E-2	7.205661E-2	3.164702E-2
10/19/2017  17:43:32.156206	3.132625E-1	1.064948E-2	1.137250E-2	-1.014142E+1	2.732853E-2	2.709402E-2	7.205661E-2	2.910311E-2
10/19/2017  17:43:32.157206	1.327807E-1	2.082484E-2	2.155331E-2	-1.014651E+1	3.497837E-2	2.455003E-2	8.222822E-2	2.910311E-2
10/19/2017  17:43:32.158206	2.293766E-1	5.561801E-3	2.409852E-2	-1.012614E+1	1.712873E-2	1.691808E-2	8.222822E-2	3.164702E-2
10/19/2017  17:43:32.159206	5.496683E-1	1.064948E-2	1.137250E-2	-1.013887E+1	2.477858E-2	1.691808E-2	7.205661E-2	2.655919E-2
10/19/2017  17:43:32.160206	5.267903E-1	1.828100E-2	1.137250E-2	-1.015160E+1	2.222863E-2	2.200605E-2	7.205661E-2	2.401527E-2
10/19/2017  17:43:32.161206	4.276524E-1	1.064948E-2	2.155331E-2	-1.014142E+1	2.222863E-2	2.200605E-2	8.222822E-2	2.401527E-2
10/19/2017  17:43:32.162206	3.138778E-3	1.064948E-2	1.391770E-2	-1.014651E+1	2.477858E-2	1.183011E-2	7.459952E-2	3.164702E-2
10/19/2017  17:43:32.163206	-5.535587E-1	1.573716E-2	1.137250E-2	-1.014142E+1	1.967868E-2	1.946206E-2	6.697081E-2	2.910311E-2
10/19/2017  17:43:32.164206	1.175287E-1	1.828100E-2	1.900811E-2	-1.014396E+1	1.712873E-2	3.218199E-2	6.951371E-2	2.401527E-2
10/19/2017  17:43:32.165206	8.623340E-1	4.741205E-4	1.137250E-2	-1.012614E+1	1.202884E-2	1.946206E-2	8.222822E-2	3.673486E-2
10/19/2017  17:43:32.166206	3.666444E-1	1.319332E-2	1.137250E-2	-1.013887E+1	2.987847E-2	2.455003E-2	7.968532E-2	3.164702E-2
10/19/2017  17:43:32.167206	2.093276E-2	2.336868E-2	2.918892E-2	-1.013887E+1	2.732853E-2	2.963800E-2	7.459952E-2	2.655919E-2
10/19/2017  17:43:32.168206	2.649645E-1	8.105642E-3	2.409852E-2	-1.013632E+1	1.202884E-2	1.946206E-2	7.968532E-2	3.673486E-2
10/19/2017  17:43:32.169206	1.836206E-1	1.064948E-2	1.391770E-2	-1.013378E+1	1.457878E-2	6.742135E-3	7.714242E-2	3.164702E-2
10/19/2017  17:43:32.170206	1.327807E-1	5.561801E-3	1.137250E-2	-1.014142E+1	3.242842E-2	2.200605E-2	6.951371E-2	2.910311E-2
10/19/2017  17:43:32.171206	-3.247789E-1	2.082484E-2	1.900811E-2	-1.014651E+1	2.222863E-2	3.981394E-2	7.968532E-2	2.401527E-2
10/19/2017  17:43:32.172206	-3.044429E-1	1.573716E-2	2.155331E-2	-1.013123E+1	1.712873E-2	2.455003E-2	7.205661E-2	2.655919E-2
10/19/2017  17:43:32.173206	-6.323606E-1	1.064948E-2	1.900811E-2	-1.013887E+1	1.967868E-2	9.286120E-3	7.459952E-2	2.401527E-2
10/19/2017  17:43:32.174206	-2.739390E-1	2.082484E-2	1.900811E-2	-1.015669E+1	3.242842E-2	2.709402E-2	7.459952E-2	2.910311E-2
10/19/2017  17:43:32.175206	-9.526524E-1	1.064948E-2	2.918892E-2	-1.013632E+1	1.457878E-2	2.200605E-2	7.968532E-2	3.164702E-2
10/19/2017  17:43:32.176206	-1.646618E+0	5.561801E-3	2.155331E-2	-1.012105E+1	3.497837E-2	9.286120E-3	7.968532E-2	2.401527E-2
10/19/2017  17:43:32.177206	-1.455968E+0	1.064948E-2	1.391770E-2	-1.014651E+1	2.732853E-2	1.946206E-2	7.205661E-2	2.910311E-2
10/19/2017  17:43:32.178206	-4.722148E-1	1.573716E-2	1.391770E-2	-1.013887E+1	2.222863E-2	2.455003E-2	6.951371E-2	2.910311E-2
10/19/2017  17:43:32.179206	7.708221E-1	1.319332E-2	2.918892E-2	-1.013632E+1	1.457878E-2	1.946206E-2	7.968532E-2	3.164702E-2
10/19/2017  17:43:32.180206	1.576635E+0	8.105642E-3	1.900811E-2	-1.013632E+1	2.222863E-2	2.200605E-2	7.714242E-2	5.199836E-2
10/19/2017  17:43:32.181206	2.598805E-1	1.319332E-2	1.137250E-2	-1.015415E+1	2.987847E-2	2.455003E-2	6.188501E-2	3.164702E-2
10/19/2017  17:43:32.182206	6.668872E-2	1.573716E-2	1.646291E-2	-1.014142E+1	1.712873E-2	2.709402E-2	8.222822E-2	8.751773E-3
10/19/2017  17:43:32.183206	3.946064E-1	5.561801E-3	2.155331E-2	-1.012105E+1	1.712873E-2	1.437409E-2	7.714242E-2	3.927877E-2
10/19/2017  17:43:32.184206	7.098141E-1	-2.069720E-3	1.646291E-2	-1.012869E+1	2.987847E-2	1.691808E-2	6.951371E-2	3.164702E-2
10/19/2017  17:43:32.185206	1.452077E+0	1.573716E-2	1.646291E-2	-1.014396E+1	1.967868E-2	3.218199E-2	7.968532E-2	2.401527E-2
10/19/2017  17:43:32.186206	6.589742E-1	1.064948E-2	1.900811E-2	-1.014142E+1	1.202884E-2	1.437409E-2	8.222822E-2	2.910311E-2
								
10/19/2017  17:43:32.187206	-2.561450E-1	1.573716E-2	1.646291E-2	-1.013378E+1	1.967868E-2	1.946206E-2	6.697081E-2	3.164702E-2
10/19/2017  17:43:32.188206	7.685671E-2	1.064948E-2	2.155331E-2	-1.013887E+1	2.222863E-2	2.963800E-2	7.714242E-2	3.164702E-2
10/19/2017  17:43:32.189206	9.436779E-1	8.105642E-3	1.391770E-2	-1.013887E+1	2.222863E-2	1.946206E-2	7.714242E-2	2.910311E-2
10/19/2017  17:43:32.190206	1.785366E-1	1.319332E-2	3.736893E-3	-1.013887E+1	1.457878E-2	6.742135E-3	7.714242E-2	3.419094E-2
10/19/2017  17:43:32.191206	-2.713970E-1	1.064948E-2	1.646291E-2	-1.014651E+1	2.732853E-2	1.946206E-2	6.697081E-2	2.655919E-2
10/19/2017  17:43:32.192206	-6.018567E-1	1.828100E-2	1.900811E-2	-1.014142E+1	1.967868E-2	2.963800E-2	7.459952E-2	2.401527E-2
10/19/2017  17:43:32.193206	-9.577364E-1	3.017961E-3	2.409852E-2	-1.013378E+1	2.222863E-2	1.946206E-2	8.222822E-2	3.673486E-2
10/19/2017  17:43:32.194206	-3.934129E-1	5.561801E-3	1.900811E-2	-1.013378E+1	2.732853E-2	1.183011E-2	6.951371E-2	4.182269E-2
10/19/2017  17:43:32.195206	4.225684E-1	1.064948E-2	8.827299E-3	-1.013632E+1	2.477858E-2	2.709402E-2	6.188501E-2	2.147136E-2
10/19/2017  17:43:32.196206	6.462642E-1	1.828100E-2	1.391770E-2	-1.014142E+1	1.457878E-2	2.709402E-2	8.222822E-2	3.164702E-2
10/19/2017  17:43:32.197206	4.381074E-2	1.064948E-2	2.409852E-2	-1.013123E+1	2.987847E-2	1.437409E-2	7.459952E-2	3.673486E-2
10/19/2017  17:43:32.198206	-3.019009E-1	8.105642E-3	1.646291E-2	-1.012869E+1	2.732853E-2	1.946206E-2	6.697081E-2	3.164702E-2
10/19/2017  17:43:32.199206	9.719269E-2	1.573716E-2	1.900811E-2	-1.014396E+1	4.378993E-3	2.709402E-2	6.951371E-2	1.638352E-2
10/19/2017  17:43:32.200206	-2.281830E-1	1.573716E-2	1.646291E-2	-1.014905E+1	1.712873E-2	1.946206E-2	8.222822E-2	3.164702E-2
10/19/2017  17:43:32.201206	-8.026745E-1	1.064948E-2	1.900811E-2	-1.013632E+1	2.477858E-2	1.946206E-2	7.714242E-2	3.927877E-2
10/19/2017  17:43:32.202206	-1.308532E+0	1.573716E-2	1.900811E-2	-1.011850E+1	2.987847E-2	2.963800E-2	7.205661E-2	2.910311E-2
10/19/2017  17:43:32.203206	5.471263E-1	1.573716E-2	1.391770E-2	-1.014396E+1	2.222863E-2	2.455003E-2	7.459952E-2	2.401527E-2
10/19/2017  17:43:32.204206	1.782537E+0	1.319332E-2	2.155331E-2	-1.014142E+1	1.457878E-2	9.286120E-3	7.205661E-2	3.164702E-2
10/19/2017  17:43:32.205206	9.767239E-1	3.017961E-3	2.409852E-2	-1.013378E+1	2.222863E-2	1.691808E-2	7.205661E-2	3.164702E-2
10/19/2017  17:43:32.206206	5.293323E-1	1.319332E-2	1.137250E-2	-1.013632E+1	2.477858E-2	1.946206E-2	6.951371E-2	2.910311E-2
10/19/2017  17:43:32.207206	3.742704E-1	2.336868E-2	8.827299E-3	-1.014651E+1	2.477858E-2	1.946206E-2	7.205661E-2	2.910311E-2
10/19/2017  17:43:32.208206	-5.024317E-2	1.064948E-2	2.409852E-2	-1.014142E+1	1.457878E-2	2.200605E-2	6.697081E-2	3.164702E-2
10/19/2017  17:43:32.209206	-3.654509E-1	1.064948E-2	1.646291E-2	-1.013123E+1	1.202884E-2	1.183011E-2	7.205661E-2	3.419094E-2
10/19/2017  17:43:32.210206	2.242926E-1	5.561801E-3	1.137250E-2	-1.013123E+1	3.242842E-2	1.946206E-2	6.697081E-2	3.164702E-2
10/19/2017  17:43:32.211206	9.970599E-1	1.319332E-2	1.900811E-2	-1.013887E+1	2.222863E-2	3.726996E-2	7.459952E-2	3.164702E-2
10/19/2017  17:43:32.212206	4.962863E-1	1.064948E-2	1.900811E-2	-1.013887E+1	2.987847E-2	1.946206E-2	7.968532E-2	2.910311E-2
10/19/2017  17:43:32.213206	-5.738947E-1	1.319332E-2	2.155331E-2	-1.013887E+1	2.222863E-2	1.437409E-2	7.459952E-2	3.419094E-2
10/19/2017  17:43:32.214206	-8.357205E-1	3.100021E-2	1.391770E-2	-1.014651E+1	3.242842E-2	1.946206E-2	6.951371E-2	2.910311E-2
10/19/2017  17:43:32.215206	-3.120689E-1	1.828100E-2	1.900811E-2	-1.014651E+1	2.477858E-2	2.963800E-2	7.205661E-2	2.655919E-2
10/19/2017  17:43:32.216206	2.601676E-2	1.319332E-2	2.664372E-2	-1.012359E+1	9.478889E-3	2.200605E-2	7.968532E-2	3.927877E-2
10/19/2017  17:43:32.217206	1.640185E+0	8.105642E-3	1.137250E-2	-1.013887E+1	2.732853E-2	1.183011E-2	7.459952E-2	3.927877E-2
10/19/2017  17:43:32.218206	-7.820515E-2	1.064948E-2	1.900811E-2	-1.013632E+1	1.202884E-2	2.455003E-2	6.442791E-2	3.164702E-2
10/19/2017  17:43:32.219206	-1.417551E-1	2.082484E-2	1.900811E-2	-1.014142E+1	2.222863E-2	2.709402E-2	7.714242E-2	2.401527E-2
								
10/19/2017  17:43:32.220206	-6.908266E-1	1.573716E-2	2.664372E-2	-1.013378E+1	1.457878E-2	2.200605E-2	8.477112E-2	3.673486E-2
10/19/2017  17:43:32.221206	-3.451149E-1	5.561801E-3	6.282096E-3	-1.013378E+1	2.477858E-2	1.691808E-2	6.951371E-2	3.927877E-2
10/19/2017  17:43:32.222206	8.956670E-2	2.082484E-2	1.391770E-2	-1.014651E+1	2.477858E-2	2.963800E-2	6.951371E-2	3.419094E-2
10/19/2017  17:43:32.223206	-1.900530E-1	2.082484E-2	2.155331E-2	-1.013887E+1	2.222863E-2	2.455003E-2	7.968532E-2	2.655919E-2
10/19/2017  17:43:32.224206	1.226127E-1	1.319332E-2	1.137250E-2	-1.013632E+1	1.967868E-2	2.200605E-2	7.459952E-2	3.673486E-2
10/19/2017  17:43:32.225206	-8.408045E-1	1.064948E-2	1.391770E-2	-1.013632E+1	2.987847E-2	1.946206E-2	5.679920E-2	3.164702E-2
10/19/2017  17:43:32.226206	5.906273E-2	1.319332E-2	8.827299E-3	-1.014651E+1	1.712873E-2	2.455003E-2	7.459952E-2	2.147136E-2
10/19/2017  17:43:32.227206	5.928822E-1	1.573716E-2	2.664372E-2	-1.013123E+1	1.967868E-2	1.691808E-2	7.714242E-2	3.673486E-2
10/19/2017  17:43:32.228206	5.801723E-1	8.105642E-3	2.918892E-2	-1.012869E+1	2.222863E-2	1.946206E-2	7.205661E-2	3.927877E-2
10/19/2017  17:43:32.229206	4.381074E-2	1.573716E-2	1.137250E-2	-1.014396E+1	2.987847E-2	2.709402E-2	6.697081E-2	2.655919E-2
10/19/2017  17:43:32.230206	5.652073E-2	1.828100E-2	2.155331E-2	-1.014905E+1	6.928941E-3	1.946206E-2	8.222822E-2	2.655919E-2
10/19/2017  17:43:32.231206	7.886161E-1	1.828100E-2	1.391770E-2	-1.013378E+1	2.477858E-2	1.183011E-2	7.459952E-2	3.927877E-2
10/19/2017  17:43:32.232206	1.431741E+0	1.064948E-2	1.137250E-2	-1.013887E+1	2.987847E-2	1.946206E-2	6.697081E-2	3.419094E-2
10/19/2017  17:43:32.233206	1.322436E+0	3.100021E-2	2.409852E-2	-1.012869E+1	9.478889E-3	2.709402E-2	7.968532E-2	2.655919E-2
10/19/2017  17:43:32.234206	-3.451149E-1	1.064948E-2	1.900811E-2	-1.013123E+1	1.712873E-2	1.654165E-3	7.968532E-2	3.164702E-2
10/19/2017  17:43:32.235206	-2.536030E-1	3.017961E-3	1.900811E-2	-1.014651E+1	1.202884E-2	2.200605E-2	6.951371E-2	3.164702E-2
10/19/2017  17:43:32.236206	-2.713970E-1	2.336868E-2	2.664372E-2	-1.013887E+1	2.222863E-2	2.963800E-2	7.459952E-2	2.655919E-2
10/19/2017  17:43:32.237206	-2.408930E-1	1.064948E-2	2.155331E-2	-1.013632E+1	2.732853E-2	1.183011E-2	8.477112E-2	3.164702E-2
10/19/2017  17:43:32.238206	1.378647E-1	5.561801E-3	1.137250E-2	-1.012614E+1	2.477858E-2	1.691808E-2	6.697081E-2	3.164702E-2
10/19/2017  17:43:32.239206	-1.945217E-3	1.319332E-2	2.155331E-2	-1.013632E+1	1.712873E-2	1.946206E-2	6.697081E-2	2.147136E-2
10/19/2017  17:43:32.240206	-1.544651E-1	1.319332E-2	1.646291E-2	-1.013632E+1	1.712873E-2	1.946206E-2	8.222822E-2	3.164702E-2
10/19/2017  17:43:32.241206	-1.468391E-1	1.064948E-2	2.409852E-2	-1.013378E+1	2.477858E-2	1.437409E-2	7.714242E-2	3.164702E-2
10/19/2017  17:43:32.242206	3.386825E-1	1.319332E-2	1.900811E-2	-1.010832E+1	2.222863E-2	2.963800E-2	6.951371E-2	2.910311E-2
10/19/2017  17:43:32.243206	2.319186E-1	1.064948E-2	1.900811E-2	-1.013632E+1	2.222863E-2	2.200605E-2	7.205661E-2	2.147136E-2
10/19/2017  17:43:32.244206	-3.069849E-1	5.561801E-3	1.900811E-2	-1.014651E+1	2.477858E-2	4.198150E-3	6.951371E-2	3.673486E-2
10/19/2017  17:43:32.245206	-4.112068E-1	1.064948E-2	1.137250E-2	-1.014651E+1	2.987847E-2	1.946206E-2	6.697081E-2	3.164702E-2
10/19/2017  17:43:32.246206	-4.112068E-1	2.082484E-2	1.900811E-2	-1.013887E+1	2.222863E-2	2.963800E-2	8.222822E-2	2.401527E-2
10/19/2017  17:43:32.247206	-2.002210E-1	1.573716E-2	1.900811E-2	-1.013123E+1	1.712873E-2	1.437409E-2	7.968532E-2	3.673486E-2
10/19/2017  17:43:32.248206	-6.549516E-2	3.017961E-3	1.646291E-2	-1.013632E+1	2.987847E-2	1.691808E-2	7.205661E-2	3.419094E-2
10/19/2017  17:43:32.249206	-9.091514E-2	2.082484E-2	-1.353514E-3	-1.014142E+1	2.222863E-2	1.183011E-2	7.459952E-2	2.655919E-2
10/19/2017  17:43:32.250206	3.183465E-1	2.082484E-2	2.664372E-2	-1.013378E+1	1.457878E-2	1.946206E-2	7.968532E-2	3.164702E-2
10/19/2017  17:43:32.251206	3.056365E-1	8.105642E-3	1.646291E-2	-1.013632E+1	2.987847E-2	2.455003E-2	6.951371E-2	4.182269E-2
10/19/2017  17:43:32.252206	4.174844E-1	1.064948E-2	1.137250E-2	-1.013632E+1	2.222863E-2	1.946206E-2	6.697081E-2	2.655919E-2
								
10/19/2017  17:43:32.253206	-2.408930E-1	1.573716E-2	1.391770E-2	-1.014651E+1	2.477858E-2	1.437409E-2	7.459952E-2	1.129569E-2
10/19/2017  17:43:32.254206	-7.566315E-2	1.064948E-2	2.664372E-2	-1.013123E+1	1.712873E-2	1.691808E-2	7.968532E-2	3.673486E-2
10/19/2017  17:43:32.255206	-1.188771E-1	5.561801E-3	2.155331E-2	-1.013378E+1	2.222863E-2	1.691808E-2	7.459952E-2	3.419094E-2
10/19/2017  17:43:32.256206	3.081785E-1	1.064948E-2	1.391770E-2	-1.014651E+1	1.712873E-2	2.963800E-2	6.951371E-2	2.401527E-2
10/19/2017  17:43:32.257206	3.030945E-1	2.082484E-2	2.664372E-2	-1.015415E+1	2.222863E-2	2.709402E-2	7.714242E-2	2.147136E-2
10/19/2017  17:43:32.258206	1.810786E-1	5.561801E-3	2.664372E-2	-1.012614E+1	1.829045E-3	1.437409E-2	6.951371E-2	4.182269E-2
10/19/2017  17:43:32.259206	3.717284E-1	1.319332E-2	1.391770E-2	-1.013378E+1	2.732853E-2	2.200605E-2	6.697081E-2	3.164702E-2
10/19/2017  17:43:32.260206	-2.129310E-1	2.082484E-2	1.900811E-2	-1.014142E+1	2.222863E-2	2.709402E-2	7.459952E-2	2.147136E-2
10/19/2017  17:43:32.261206	-7.312115E-2	8.105642E-3	2.664372E-2	-1.014142E+1	1.457878E-2	1.946206E-2	7.459952E-2	3.927877E-2
10/19/2017  17:43:32.262206	-1.875110E-1	5.561801E-3	1.646291E-2	-1.013123E+1	2.987847E-2	1.437409E-2	6.442791E-2	2.655919E-2
10/19/2017  17:43:32.263206	-5.484747E-1	1.573716E-2	1.391770E-2	-1.012614E+1	3.242842E-2	2.963800E-2	7.205661E-2	2.655919E-2
10/19/2017  17:43:32.264206	-5.001768E-1	2.336868E-2	2.155331E-2	-1.014396E+1	2.477858E-2	1.946206E-2	7.714242E-2	2.910311E-2
10/19/2017  17:43:32.265206	2.217506E-1	8.105642E-3	2.664372E-2	-1.014651E+1	2.222863E-2	1.437409E-2	6.951371E-2	4.182269E-2
10/19/2017  17:43:32.266206	4.479884E-1	3.017961E-3	8.827299E-3	-1.013378E+1	2.477858E-2	2.709402E-2	6.951371E-2	2.910311E-2
10/19/2017  17:43:32.267206	1.353227E-1	2.591253E-2	1.646291E-2	-1.013378E+1	2.477858E-2	2.455003E-2	7.968532E-2	2.910311E-2
10/19/2017  17:43:32.268206	-3.984969E-1	1.064948E-2	1.900811E-2	-1.013887E+1	2.222863E-2	2.963800E-2	7.459952E-2	3.419094E-2
10/19/2017  17:43:32.269206	-1.824271E-1	8.105642E-3	1.646291E-2	-1.013887E+1	2.477858E-2	2.455003E-2	6.697081E-2	2.910311E-2
10/19/2017  17:43:32.270206	2.598805E-1	1.064948E-2	6.282096E-3	-1.014142E+1	1.202884E-2	2.455003E-2	7.205661E-2	1.892744E-2
10/19/2017  17:43:32.271206	7.530281E-1	2.082484E-2	2.409852E-2	-1.013123E+1	1.967868E-2	1.946206E-2	7.968532E-2	3.164702E-2
10/19/2017  17:43:32.272206	7.098141E-1	5.561801E-3	1.391770E-2	-1.012869E+1	1.967868E-2	1.946206E-2	7.459952E-2	3.673486E-2
10/19/2017  17:43:32.273206	-6.221927E-1	5.561801E-3	1.137250E-2	-1.012869E+1	1.712873E-2	1.946206E-2	6.951371E-2	2.655919E-2
10/19/2017  17:43:32.274206	-1.145844E+0	2.082484E-2	1.646291E-2	-1.014651E+1	1.712873E-2	1.946206E-2	7.205661E-2	2.655919E-2
10/19/2017  17:43:32.275206	2.395446E-1	-2.069720E-3	2.409852E-2	-1.014905E+1	6.928941E-3	2.200605E-2	7.459952E-2	2.655919E-2
10/19/2017  17:43:32.276206	5.903402E-1	1.064948E-2	1.900811E-2	-1.013887E+1	1.967868E-2	2.455003E-2	7.714242E-2	3.419094E-2
10/19/2017  17:43:32.277206	7.098141E-1	1.319332E-2	1.391770E-2	-1.013378E+1	2.732853E-2	1.946206E-2	7.714242E-2	2.401527E-2
10/19/2017  17:43:32.278206	5.680776E-3	1.828100E-2	2.155331E-2	-1.013632E+1	1.967868E-2	2.455003E-2	7.968532E-2	2.910311E-2
10/19/2017  17:43:32.279206	1.937886E-1	8.105642E-3	1.900811E-2	-1.012614E+1	1.202884E-2	1.437409E-2	6.697081E-2	3.164702E-2
10/19/2017  17:43:32.280206	9.309679E-1	1.319332E-2	2.409852E-2	-1.013378E+1	2.732853E-2	2.200605E-2	6.951371E-2	3.164702E-2
10/19/2017  17:43:32.281206	-1.239611E-1	2.082484E-2	1.900811E-2	-1.014651E+1	1.967868E-2	2.709402E-2	7.459952E-2	2.147136E-2
10/19/2017  17:43:32.282206	-6.298186E-1	1.319332E-2	1.900811E-2	-1.012105E+1	1.967868E-2	2.709402E-2	6.951371E-2	2.910311E-2
10/19/2017  17:43:32.283206	2.217506E-1	1.064948E-2	1.391770E-2	-1.014142E+1	2.477858E-2	2.200605E-2	6.951371E-2	1.383961E-2
10/19/2017  17:43:32.284206	6.488062E-1	2.082484E-2	1.646291E-2	-1.015924E+1	1.967868E-2	1.946206E-2	7.205661E-2	2.401527E-2
10/19/2017  17:43:32.285206	2.319186E-1	1.064948E-2	2.918892E-2	-1.013632E+1	2.222863E-2	2.455003E-2	8.222822E-2	3.419094E-2
								
10/19/2017  17:43:32.286206	4.454464E-1	1.064948E-2	1.137250E-2	-1.012869E+1	2.222863E-2	1.437409E-2	8.731403E-2	3.673486E-2
10/19/2017  17:43:32.287206	3.285145E-1	1.319332E-2	2.155331E-2	-1.013887E+1	2.987847E-2	2.200605E-2	6.951371E-2	2.147136E-2
10/19/2017  17:43:32.288206	-3.146109E-1	1.573716E-2	2.155331E-2	-1.014396E+1	1.712873E-2	2.709402E-2	7.968532E-2	3.164702E-2
10/19/2017  17:43:32.289206	-6.882846E-1	1.319332E-2	3.682453E-2	-1.013632E+1	9.478889E-3	2.455003E-2	8.222822E-2	3.927877E-2
10/19/2017  17:43:32.290206	2.751325E-1	1.319332E-2	1.137250E-2	-1.013632E+1	2.732853E-2	1.946206E-2	7.205661E-2	2.910311E-2
10/19/2017  17:43:32.291206	1.912466E-1	2.082484E-2	1.900811E-2	-1.014396E+1	2.732853E-2	1.946206E-2	7.205661E-2	2.655919E-2
10/19/2017  17:43:32.292206	7.199821E-1	4.741205E-4	2.155331E-2	-1.013887E+1	9.478889E-3	2.200605E-2	7.714242E-2	3.164702E-2
10/19/2017  17:43:32.293206	8.222774E-3	1.319332E-2	1.900811E-2	-1.013632E+1	1.967868E-2	4.198150E-3	7.714242E-2	3.164702E-2
10/19/2017  17:43:32.294206	5.652073E-2	1.064948E-2	1.137250E-2	-1.014905E+1	2.732853E-2	2.709402E-2	7.205661E-2	2.655919E-2
10/19/2017  17:43:32.295206	-8.103005E-1	1.828100E-2	2.409852E-2	-1.014142E+1	1.457878E-2	2.963800E-2	7.968532E-2	2.655919E-2
10/19/2017  17:43:32.296206	-1.656786E+0	-2.069720E-3	2.409852E-2	-1.014396E+1	2.222863E-2	1.691808E-2	8.477112E-2	3.419094E-2
10/19/2017  17:43:32.297206	-2.035543E+0	8.105642E-3	1.137250E-2	-1.014396E+1	2.732853E-2	1.183011E-2	6.951371E-2	2.910311E-2
10/19/2017  17:43:32.298206	5.089963E-1	2.082484E-2	1.646291E-2	-1.014396E+1	1.967868E-2	2.455003E-2	5.934210E-2	2.910311E-2
10/19/2017  17:43:32.299206	2.656984E+0	8.105642E-3	3.173413E-2	-1.012614E+1	1.457878E-2	2.200605E-2	7.968532E-2	3.164702E-2
10/19/2017  17:43:32.300206	5.115383E-1	8.105642E-3	1.646291E-2	-1.013123E+1	1.967868E-2	1.691808E-2	7.714242E-2	2.910311E-2
10/19/2017  17:43:32.301206	-2.302453E+0	1.573716E-2	6.282096E-3	-1.015669E+1	2.732853E-2	1.437409E-2	6.697081E-2	2.910311E-2
10/19/2017  17:43:32.302206	-1.974535E+0	1.573716E-2	1.391770E-2	-1.014905E+1	2.222863E-2	2.963800E-2	7.205661E-2	1.383961E-2
10/19/2017  17:43:32.303206	-1.392131E-1	1.828100E-2	2.155331E-2	-1.011086E+1	1.712873E-2	1.946206E-2	8.222822E-2	3.673486E-2
10/19/2017  17:43:32.304206	1.190252E+0	1.064948E-2	1.137250E-2	-1.012869E+1	2.477858E-2	1.691808E-2	7.205661E-2	3.164702E-2
10/19/2017  17:43:32.305206	9.309679E-1	1.064948E-2	1.646291E-2	-1.015415E+1	2.222863E-2	2.455003E-2	6.951371E-2	2.401527E-2
10/19/2017  17:43:32.306206	3.030945E-1	8.105642E-3	2.918892E-2	-1.013378E+1	1.202884E-2	2.455003E-2	7.968532E-2	2.910311E-2
10/19/2017  17:43:32.307206	9.309679E-1	1.064948E-2	1.900811E-2	-1.013887E+1	2.477858E-2	1.691808E-2	8.222822E-2	3.927877E-2
10/19/2017  17:43:32.308206	6.513482E-1	3.354405E-2	2.409852E-2	-1.014396E+1	2.477858E-2	2.709402E-2	6.951371E-2	2.401527E-2
10/19/2017  17:43:32.309206	7.809901E-1	8.105642E-3	2.155331E-2	-1.013887E+1	1.712873E-2	1.946206E-2	7.714242E-2	2.910311E-2
10/19/2017  17:43:32.310206	-1.945217E-3	5.561801E-3	1.646291E-2	-1.013123E+1	1.457878E-2	4.198150E-3	7.714242E-2	3.164702E-2
10/19/2017  17:43:32.311206	-2.053050E-1	3.017961E-3	1.646291E-2	-1.014396E+1	2.732853E-2	1.691808E-2	7.714242E-2	2.910311E-2
10/19/2017  17:43:32.312206	-5.128868E-1	1.319332E-2	1.900811E-2	-1.013632E+1	1.712873E-2	2.963800E-2	7.968532E-2	3.419094E-2
10/19/2017  17:43:32.313206	-1.239611E-1	1.573716E-2	1.646291E-2	-1.012359E+1	1.967868E-2	1.437409E-2	7.968532E-2	4.182269E-2
10/19/2017  17:43:32.314206	5.547523E-1	1.573716E-2	1.137250E-2	-1.013887E+1	2.987847E-2	6.742135E-3	6.951371E-2	2.147136E-2
10/19/2017  17:43:32.315206	2.903845E-1	5.561801E-3	1.900811E-2	-1.015160E+1	1.457878E-2	2.200605E-2	7.205661E-2	3.164702E-2
10/19/2017  17:43:32.316206	5.420423E-1	1.573716E-2	2.155331E-2	-1.013887E+1	1.967868E-2	1.691808E-2	7.205661E-2	3.927877E-2
10/19/2017  17:43:32.317206	-5.586427E-1	1.319332E-2	1.137250E-2	-1.013123E+1	4.262821E-2	1.946206E-2	7.205661E-2	3.164702E-2
10/19/2017  17:43:32.318206	-4.007518E-2	2.082484E-2	1.900811E-2	-1.014651E+1	1.967868E-2	2.455003E-2	7.205661E-2	2.147136E-2
								
10/19/2017  17:43:32.319206	1.106366E+0	1.064948E-2	2.155331E-2	-1.013632E+1	1.457878E-2	1.183011E-2	8.222822E-2	3.673486E-2
10/19/2017  17:43:32.320206	1.881675E+0	8.105642E-3	1.391770E-2	-1.013887E+1	2.732853E-2	9.286120E-3	7.205661E-2	3.164702E-2
10/19/2017  17:43:32.321206	3.335985E-1	2.082484E-2	1.391770E-2	-1.014396E+1	1.967868E-2	2.455003E-2	7.205661E-2	3.164702E-2
10/19/2017  17:43:32.322206	-4.976348E-1	1.064948E-2	3.173413E-2	-1.014905E+1	1.967868E-2	1.946206E-2	7.714242E-2	3.164702E-2
10/19/2017  17:43:32.323206	-5.637267E-1	8.105642E-3	1.391770E-2	-1.013887E+1	1.457878E-2	1.946206E-2	7.205661E-2	3.927877E-2
10/19/2017  17:43:32.324206	-4.340848E-1	1.319332E-2	1.391770E-2	-1.015924E+1	2.732853E-2	9.286120E-3	6.442791E-2	3.164702E-2
10/19/2017  17:43:32.325206	-5.230547E-1	2.082484E-2	2.155331E-2	-1.014142E+1	2.222863E-2	1.946206E-2	7.205661E-2	3.164702E-2
10/19/2017  17:43:32.326206	-4.162908E-1	1.319332E-2	1.900811E-2	-1.013632E+1	1.457878E-2	2.200605E-2	7.459952E-2	3.673486E-2
10/19/2017  17:43:32.327206	-4.696728E-1	8.105642E-3	2.918892E-2	-1.013887E+1	2.222863E-2	1.437409E-2	7.205661E-2	2.910311E-2
10/19/2017  17:43:32.328206	1.658266E-1	1.064948E-2	1.900811E-2	-1.013887E+1	1.967868E-2	2.963800E-2	6.697081E-2	2.401527E-2
10/19/2017  17:43:32.329206	1.025022E+0	1.319332E-2	2.409852E-2	-1.013123E+1	1.202884E-2	2.455003E-2	7.968532E-2	3.419094E-2
10/19/2017  17:43:32.330206	1.205504E+0	1.064948E-2	1.900811E-2	-1.012869E+1	1.967868E-2	1.183011E-2	7.459952E-2	3.673486E-2
10/19/2017  17:43:32.331206	5.369583E-1	1.319332E-2	1.391770E-2	-1.014396E+1	3.497837E-2	1.946206E-2	6.951371E-2	2.147136E-2
10/19/2017  17:43:32.332206	4.381074E-2	1.064948E-2	2.664372E-2	-1.014651E+1	1.712873E-2	2.709402E-2	7.205661E-2	2.401527E-2
10/19/2017  17:43:32.333206	-5.535587E-1	8.105642E-3	2.155331E-2	-1.013632E+1	1.712873E-2	2.709402E-2	7.714242E-2	3.927877E-2
10/19/2017  17:43:32.334206	-7.594605E-1	8.105642E-3	1.137250E-2	-1.014905E+1	2.477858E-2	1.946206E-2	7.205661E-2	2.910311E-2
10/19/2017  17:43:32.335206	4.098584E-1	1.319332E-2	2.155331E-2	-1.013378E+1	1.967868E-2	2.200605E-2	7.205661E-2	2.655919E-2
10/19/2017  17:43:32.336206	2.751325E-1	1.319332E-2	2.409852E-2	-1.013123E+1	9.478889E-3	1.946206E-2	7.714242E-2	3.927877E-2
10/19/2017  17:43:32.337206	5.395003E-1	8.105642E-3	1.137250E-2	-1.013632E+1	2.222863E-2	1.691808E-2	7.714242E-2	3.164702E-2
10/19/2017  17:43:32.338206	-4.671308E-1	1.319332E-2	1.646291E-2	-1.013887E+1	3.497837E-2	1.946206E-2	6.697081E-2	2.401527E-2
10/19/2017  17:43:32.339206	-7.645445E-1	2.082484E-2	1.900811E-2	-1.013887E+1	1.967868E-2	1.946206E-2	7.205661E-2	2.910311E-2
10/19/2017  17:43:32.340206	-3.196949E-1	1.828100E-2	1.391770E-2	-1.014396E+1	9.478889E-3	1.946206E-2	7.459952E-2	2.401527E-2
10/19/2017  17:43:32.341206	4.047744E-1	1.064948E-2	6.282096E-3	-1.014651E+1	2.477858E-2	1.437409E-2	7.205661E-2	2.910311E-2
10/19/2017  17:43:32.342206	6.538902E-1	1.573716E-2	2.155331E-2	-1.014142E+1	1.967868E-2	2.455003E-2	8.222822E-2	1.383961E-2
10/19/2017  17:43:32.343206	8.852120E-1	1.064948E-2	2.664372E-2	-1.010832E+1	1.457878E-2	1.946206E-2	8.477112E-2	3.673486E-2
10/19/2017  17:43:32.344206	1.154664E+0	1.319332E-2	1.391770E-2	-1.013632E+1	2.732853E-2	1.946206E-2	6.697081E-2	3.164702E-2
10/19/2017  17:43:32.345206	5.089963E-1	1.573716E-2	1.646291E-2	-1.014905E+1	1.967868E-2	2.709402E-2	7.205661E-2	2.401527E-2
10/19/2017  17:43:32.346206	-3.984969E-1	5.561801E-3	1.900811E-2	-1.013632E+1	1.457878E-2	1.946206E-2	8.222822E-2	3.927877E-2
10/19/2017  17:43:32.347206	-8.331785E-1	1.064948E-2	1.391770E-2	-1.012869E+1	2.477858E-2	1.691808E-2	6.697081E-2	3.419094E-2
10/19/2017  17:43:32.348206	-4.035809E-1	2.845637E-2	2.664372E-2	-1.014905E+1	2.987847E-2	2.455003E-2	6.697081E-2	2.655919E-2
10/19/2017  17:43:32.349206	-2.739390E-1	1.319332E-2	2.409852E-2	-1.013887E+1	1.457878E-2	2.709402E-2	8.222822E-2	2.655919E-2
10/19/2017  17:43:32.350206	-6.803716E-2	1.573716E-2	2.409852E-2	-1.012614E+1	2.222863E-2	1.437409E-2	7.205661E-2	3.164702E-2
10/19/2017  17:43:32.351206	8.222774E-3	1.319332E-2	1.646291E-2	-1.014142E+1	2.732853E-2	1.946206E-2	6.951371E-2	2.147136E-2
								
10/19/2017  17:43:32.352206	4.381074E-2	2.082484E-2	2.409852E-2	-1.014142E+1	1.967868E-2	3.472597E-2	7.714242E-2	2.655919E-2
10/19/2017  17:43:32.353206	8.318300E-1	5.561801E-3	2.409852E-2	-1.013123E+1	2.222863E-2	1.946206E-2	8.222822E-2	3.164702E-2
10/19/2017  17:43:32.354206	1.505459E+0	5.561801E-3	1.391770E-2	-1.013123E+1	2.987847E-2	1.437409E-2	6.697081E-2	2.147136E-2
10/19/2017  17:43:32.355206	6.360962E-1	2.591253E-2	1.391770E-2	-1.015160E+1	1.967868E-2	2.709402E-2	7.459952E-2	2.655919E-2
10/19/2017  17:43:32.356206	-8.916444E-1	1.064948E-2	2.918892E-2	-1.013632E+1	1.457878E-2	2.200605E-2	7.968532E-2	3.164702E-2
10/19/2017  17:43:32.357206	-5.027188E-1	1.064948E-2	1.900811E-2	-1.012614E+1	3.242842E-2	1.437409E-2	7.968532E-2	2.401527E-2
10/19/2017  17:43:32.358206	-2.739390E-1	1.319332E-2	1.137250E-2	-1.014396E+1	2.732853E-2	1.946206E-2	6.442791E-2	2.147136E-2
10/19/2017  17:43:32.359206	-2.536030E-1	1.573716E-2	1.646291E-2	-1.014651E+1	1.967868E-2	2.200605E-2	6.951371E-2	3.164702E-2
10/19/2017  17:43:32.360206	8.448270E-2	1.573716E-2	2.155331E-2	-1.014905E+1	2.477858E-2	1.691808E-2	7.714242E-2	3.673486E-2
10/19/2017  17:43:32.361206	4.479884E-1	1.828100E-2	2.155331E-2	-1.013632E+1	2.477858E-2	1.946206E-2	6.697081E-2	4.182269E-2
10/19/2017  17:43:32.362206	4.632404E-1	1.828100E-2	1.646291E-2	-1.012869E+1	2.477858E-2	2.963800E-2	6.951371E-2	2.401527E-2
10/19/2017  17:43:32.363206	1.937886E-1	1.064948E-2	2.664372E-2	-1.013632E+1	1.457878E-2	2.200605E-2	8.222822E-2	1.892744E-2
10/19/2017  17:43:32.364206	-4.264588E-1	5.561801E-3	2.155331E-2	-1.012614E+1	2.222863E-2	1.183011E-2	7.968532E-2	3.673486E-2
10/19/2017  17:43:32.365206	-6.221927E-1	2.082484E-2	1.900811E-2	-1.014142E+1	2.732853E-2	2.455003E-2	6.951371E-2	2.401527E-2
10/19/2017  17:43:32.366206	-6.577806E-1	2.082484E-2	1.900811E-2	-1.014651E+1	2.222863E-2	2.709402E-2	8.477112E-2	3.164702E-2
10/19/2017  17:43:32.367206	5.680776E-3	2.336868E-2	6.282096E-3	-1.013632E+1	1.967868E-2	2.200605E-2	7.459952E-2	3.419094E-2
10/19/2017  17:43:32.368206	4.047744E-1	1.064948E-2	1.391770E-2	-1.013378E+1	2.477858E-2	2.200605E-2	5.425630E-2	3.164702E-2
10/19/2017  17:43:32.369206	3.056365E-1	1.319332E-2	3.736893E-3	-1.014651E+1	1.457878E-2	2.709402E-2	7.205661E-2	3.673486E-2
10/19/2017  17:43:32.370206	-2.482320E-2	1.573716E-2	1.900811E-2	-1.014142E+1	1.712873E-2	1.946206E-2	7.459952E-2	3.673486E-2
10/19/2017  17:43:32.371206	-1.671751E-1	1.573716E-2	1.137250E-2	-1.013887E+1	2.477858E-2	1.183011E-2	6.951371E-2	3.164702E-2
10/19/2017  17:43:32.372206	-3.984969E-1	1.319332E-2	1.900811E-2	-1.014651E+1	2.222863E-2	2.963800E-2	7.205661E-2	2.147136E-2
10/19/2017  17:43:32.373206	-2.891910E-1	8.105642E-3	1.900811E-2	-1.013378E+1	1.712873E-2	1.691808E-2	7.205661E-2	2.147136E-2
10/19/2017  17:43:32.374206	-4.112068E-1	2.591253E-2	1.900811E-2	-1.013123E+1	2.987847E-2	1.946206E-2	7.459952E-2	2.401527E-2
10/19/2017  17:43:32.375206	-4.544208E-1	1.064948E-2	1.646291E-2	-1.015415E+1	2.477858E-2	2.709402E-2	7.205661E-2	2.910311E-2
10/19/2017  17:43:32.376206	2.347476E-2	1.064948E-2	2.155331E-2	-1.013887E+1	9.478889E-3	2.455003E-2	8.222822E-2	3.927877E-2
10/19/2017  17:43:32.377206	-1.973920E-2	1.319332E-2	1.646291E-2	-1.013887E+1	2.222863E-2	1.183011E-2	6.951371E-2	3.164702E-2
10/19/2017  17:43:32.378206	1.099027E-1	2.082484E-2	2.155331E-2	-1.014142E+1	1.457878E-2	2.709402E-2	7.459952E-2	2.401527E-2
10/19/2017  17:43:32.379206	1.861626E-1	5.561801E-3	2.664372E-2	-1.013123E+1	1.712873E-2	2.455003E-2	8.222822E-2	3.419094E-2
10/19/2017  17:43:32.380206	3.234305E-1	8.105642E-3	1.137250E-2	-1.012614E+1	1.457878E-2	2.200605E-2	6.951371E-2	2.401527E-2
10/19/2017  17:43:32.381206	5.827143E-1	2.082484E-2	1.391770E-2	-1.015415E+1	2.222863E-2	2.200605E-2	7.205661E-2	2.401527E-2
10/19/2017  17:43:32.382206	4.327364E-1	8.105642E-3	3.173413E-2	-1.013378E+1	1.457878E-2	2.200605E-2	8.222822E-2	2.655919E-2
10/19/2017  17:43:32.383206	3.872675E-2	8.105642E-3	1.646291E-2	-1.012105E+1	2.222863E-2	2.963800E-2	7.968532E-2	3.164702E-2
10/19/2017  17:43:32.384206	6.923072E-2	2.591253E-2	1.646291E-2	-1.013887E+1	2.477858E-2	2.455003E-2	7.459952E-2	2.147136E-2
								
10/19/2017  17:43:32.385206	-4.261718E-2	1.319332E-2	1.646291E-2	-1.013632E+1	9.478889E-3	3.218199E-2	8.477112E-2	3.164702E-2
10/19/2017  17:43:32.386206	1.152122E+0	3.017961E-3	8.827299E-3	-1.013632E+1	1.457878E-2	2.455003E-2	7.205661E-2	2.910311E-2
10/19/2017  17:43:32.387206	3.996904E-1	2.082484E-2	1.900811E-2	-1.014142E+1	2.477858E-2	2.455003E-2	7.714242E-2	2.147136E-2
10/19/2017  17:43:32.388206	-3.476569E-1	1.319332E-2	3.427933E-2	-1.013887E+1	1.712873E-2	1.946206E-2	7.968532E-2	3.419094E-2
10/19/2017  17:43:32.389206	-7.594605E-1	4.741205E-4	1.137250E-2	-1.012869E+1	2.477858E-2	1.437409E-2	5.934210E-2	3.164702E-2
10/19/2017  17:43:32.390206	-1.748011E-1	2.082484E-2	8.827299E-3	-1.014651E+1	1.457878E-2	2.455003E-2	7.459952E-2	2.910311E-2
10/19/2017  17:43:32.391206	-2.990719E-2	1.573716E-2	1.900811E-2	-1.012869E+1	1.712873E-2	1.437409E-2	7.459952E-2	3.673486E-2
10/19/2017  17:43:32.392206	3.056365E-1	1.064948E-2	1.391770E-2	-1.013887E+1	2.987847E-2	1.946206E-2	6.697081E-2	3.673486E-2
10/19/2017  17:43:32.393206	-5.510167E-1	3.100021E-2	2.155331E-2	-1.013887E+1	2.477858E-2	1.946206E-2	7.205661E-2	2.910311E-2
10/19/2017  17:43:32.394206	-3.146109E-1	1.319332E-2	1.900811E-2	-1.014651E+1	1.967868E-2	1.946206E-2	7.459952E-2	3.164702E-2
10/19/2017  17:43:32.395206	-1.250066E+0	-2.069720E-3	1.137250E-2	-1.015669E+1	2.477858E-2	1.946206E-2	6.951371E-2	2.910311E-2
10/19/2017  17:43:32.396206	-3.501989E-1	2.082484E-2	2.155331E-2	-1.014142E+1	2.222863E-2	2.200605E-2	7.205661E-2	2.910311E-2
10/19/2017  17:43:32.397206	1.360566E+0	1.319332E-2	2.155331E-2	-1.013632E+1	2.222863E-2	1.946206E-2	8.222822E-2	2.655919E-2
10/19/2017  17:43:32.398206	3.412245E-1	8.105642E-3	6.282096E-3	-1.013887E+1	2.987847E-2	1.183011E-2	7.205661E-2	3.673486E-2
10/19/2017  17:43:32.399206	8.419980E-1	1.828100E-2	8.827299E-3	-1.014142E+1	1.457878E-2	2.963800E-2	6.697081E-2	2.147136E-2
10/19/2017  17:43:32.400206	1.093656E+0	1.319332E-2	1.391770E-2	-1.014651E+1	1.712873E-2	1.946206E-2	8.222822E-2	3.673486E-2
10/19/2017  17:43:32.401206	1.810786E-1	8.105642E-3	8.827299E-3	-1.013123E+1	2.222863E-2	1.946206E-2	7.459952E-2	4.182269E-2
10/19/2017  17:43:32.402206	-4.544208E-1	1.064948E-2	1.646291E-2	-1.011850E+1	1.712873E-2	2.963800E-2	6.951371E-2	2.401527E-2
10/19/2017  17:43:32.403206	-8.001325E-1	8.105642E-3	1.900811E-2	-1.014142E+1	1.202884E-2	2.455003E-2	8.222822E-2	2.910311E-2
10/19/2017  17:43:32.404206	-5.383067E-1	8.105642E-3	2.155331E-2	-1.014651E+1	2.477858E-2	6.742135E-3	6.951371E-2	3.164702E-2
10/19/2017  17:43:32.405206	-1.300906E+0	1.319332E-2	1.137250E-2	-1.013887E+1	2.732853E-2	2.200605E-2	6.951371E-2	2.147136E-2
10/19/2017  17:43:32.406206	-1.534770E+0	1.573716E-2	2.664372E-2	-1.014396E+1	1.202884E-2	2.963800E-2	7.205661E-2	2.147136E-2
10/19/2017  17:43:32.407206	-8.128425E-1	1.064948E-2	8.827299E-3	-1.013632E+1	1.712873E-2	9.286120E-3	7.459952E-2	3.419094E-2
10/19/2017  17:43:32.408206	1.454906E-1	1.319332E-2	1.137250E-2	-1.013887E+1	2.732853E-2	2.200605E-2	8.477112E-2	3.164702E-2
10/19/2017  17:43:32.409206	1.772369E+0	1.319332E-2	3.736893E-3	-1.013632E+1	1.457878E-2	2.963800E-2	7.459952E-2	3.164702E-2
10/19/2017  17:43:32.410206	8.953800E-1	1.573716E-2	1.646291E-2	-1.012869E+1	2.222863E-2	1.691808E-2	7.459952E-2	3.927877E-2
10/19/2017  17:43:32.411206	1.269054E+0	1.573716E-2	1.391770E-2	-1.013887E+1	1.457878E-2	3.726996E-2	7.459952E-2	3.927877E-2
10/19/2017  17:43:32.412206	6.005082E-1	3.100021E-2	2.155331E-2	-1.013887E+1	9.478889E-3	2.200605E-2	8.222822E-2	3.164702E-2
10/19/2017  17:43:32.413206	2.093276E-2	8.105642E-3	1.646291E-2	-1.012614E+1	2.222863E-2	1.437409E-2	7.714242E-2	3.673486E-2
10/19/2017  17:43:32.414206	-1.138218E+0	2.591253E-2	1.900811E-2	-1.013887E+1	1.967868E-2	2.200605E-2	7.714242E-2	2.147136E-2
10/19/2017  17:43:32.415206	-1.351746E+0	1.319332E-2	2.155331E-2	-1.014142E+1	1.712873E-2	1.946206E-2	7.968532E-2	2.910311E-2
10/19/2017  17:43:32.416206	2.014146E-1	3.017961E-3	1.646291E-2	-1.013378E+1	2.477858E-2	1.437409E-2	7.205661E-2	3.164702E-2
10/19/2017  17:43:32.417206	2.364655E+0	1.828100E-2	3.736893E-3	-1.013887E+1	2.987847E-2	1.691808E-2	7.459952E-2	2.910311E-2
								
10/19/2017  17:43:32.418206	1.729155E+0	1.573716E-2	2.664372E-2	-1.013632E+1	2.222863E-2	1.946206E-2	8.222822E-2	3.673486E-2
10/19/2017  17:43:32.419206	3.920644E-1	8.105642E-3	1.137250E-2	-1.012614E+1	1.712873E-2	1.946206E-2	7.459952E-2	3.419094E-2
10/19/2017  17:43:32.420206	-2.332670E-1	1.828100E-2	1.137250E-2	-1.014142E+1	2.222863E-2	1.946206E-2	6.697081E-2	2.147136E-2
10/19/2017  17:43:32.421206	-6.803716E-2	1.064948E-2	1.900811E-2	-1.015415E+1	1.712873E-2	1.437409E-2	7.714242E-2	3.419094E-2
10/19/2017  17:43:32.422206	2.827585E-1	5.561801E-3	1.391770E-2	-1.013632E+1	2.732853E-2	1.183011E-2	6.951371E-2	3.927877E-2
10/19/2017  17:43:32.423206	-4.261718E-2	1.828100E-2	2.155331E-2	-1.013632E+1	1.712873E-2	2.963800E-2	7.205661E-2	2.147136E-2
10/19/2017  17:43:32.424206	6.132182E-1	1.828100E-2	1.646291E-2	-1.014396E+1	1.712873E-2	2.200605E-2	7.205661E-2	2.910311E-2
10/19/2017  17:43:32.425206	7.431471E-2	1.319332E-2	1.900811E-2	-1.015924E+1	2.222863E-2	1.183011E-2	6.951371E-2	3.164702E-2
10/19/2017  17:43:32.426206	-6.041116E-2	8.105642E-3	1.391770E-2	-1.014396E+1	1.457878E-2	2.709402E-2	7.459952E-2	2.655919E-2
10/19/2017  17:43:32.427206	-1.366711E-1	1.573716E-2	1.900811E-2	-1.013887E+1	2.477858E-2	1.946206E-2	8.731403E-2	3.927877E-2
10/19/2017  17:43:32.428206	2.217506E-1	2.082484E-2	2.155331E-2	-1.013632E+1	3.497837E-2	2.455003E-2	7.205661E-2	3.164702E-2
10/19/2017  17:43:32.429206	1.785366E-1	1.573716E-2	1.900811E-2	-1.014905E+1	1.712873E-2	2.709402E-2	6.951371E-2	2.910311E-2
10/19/2017  17:43:32.430206	4.530724E-1	1.319332E-2	2.409852E-2	-1.013887E+1	1.457878E-2	2.200605E-2	8.222822E-2	3.673486E-2
10/19/2017  17:43:32.431206	3.615605E-1	2.082484E-2	1.137250E-2	-1.014142E+1	3.242842E-2	1.946206E-2	7.205661E-2	2.910311E-2
10/19/2017  17:43:32.432206	1.937886E-1	1.828100E-2	1.900811E-2	-1.014396E+1	1.967868E-2	4.490191E-2	6.951371E-2	2.655919E-2
10/19/2017  17:43:32.433206	-1.137931E-1	-2.069720E-3	2.409852E-2	-1.012869E+1	1.967868E-2	1.437409E-2	8.222822E-2	3.673486E-2
10/19/2017  17:43:32.434206	3.110075E-2	1.573716E-2	1.137250E-2	-1.014142E+1	2.732853E-2	6.742135E-3	6.951371E-2	2.147136E-2
10/19/2017  17:43:32.435206	1.327807E-1	5.561801E-3	2.409852E-2	-1.014905E+1	2.222863E-2	2.963800E-2	8.222822E-2	3.419094E-2
10/19/2017  17:43:32.436206	4.124004E-1	5.561801E-3	1.900811E-2	-1.013378E+1	2.477858E-2	1.946206E-2	7.714242E-2	3.673486E-2
10/19/2017  17:43:32.437206	7.784481E-1	1.319332E-2	1.137250E-2	-1.012614E+1	3.497837E-2	2.200605E-2	7.459952E-2	3.927877E-2
10/19/2017  17:43:32.438206	9.767239E-1	1.064948E-2	1.900811E-2	-1.013887E+1	2.222863E-2	1.946206E-2	6.951371E-2	3.164702E-2
10/19/2017  17:43:32.439206	-2.129310E-1	1.064948E-2	1.900811E-2	-1.013887E+1	2.987847E-2	1.691808E-2	6.951371E-2	4.182269E-2
10/19/2017  17:43:32.440206	-6.196507E-1	1.319332E-2	1.137250E-2	-1.013123E+1	2.732853E-2	2.200605E-2	6.951371E-2	2.401527E-2
10/19/2017  17:43:32.441206	-2.129310E-1	2.082484E-2	1.900811E-2	-1.014905E+1	2.222863E-2	2.709402E-2	8.477112E-2	3.927877E-2
10/19/2017  17:43:32.442206	-6.349026E-1	8.105642E-3	3.173413E-2	-1.014651E+1	1.457878E-2	1.946206E-2	8.222822E-2	3.927877E-2
10/19/2017  17:43:32.443206	-2.942750E-1	8.105642E-3	6.282096E-3	-1.013378E+1	2.732853E-2	1.946206E-2	6.951371E-2	1.638352E-2
10/19/2017  17:43:32.444206	-2.968170E-1	2.082484E-2	1.900811E-2	-1.015924E+1	2.477858E-2	1.691808E-2	6.951371E-2	2.401527E-2
10/19/2017  17:43:32.445206	-2.103890E-1	1.573716E-2	2.409852E-2	-1.013123E+1	1.457878E-2	1.946206E-2	7.968532E-2	3.927877E-2
10/19/2017  17:43:32.446206	1.022767E-1	1.319332E-2	1.137250E-2	-1.012869E+1	2.987847E-2	2.709402E-2	6.697081E-2	2.910311E-2
10/19/2017  17:43:32.447206	1.531166E-1	1.573716E-2	1.137250E-2	-1.014396E+1	2.477858E-2	2.200605E-2	7.459952E-2	2.147136E-2
10/19/2017  17:43:32.448206	2.878425E-1	1.573716E-2	1.900811E-2	-1.013887E+1	1.967868E-2	1.946206E-2	8.731403E-2	3.164702E-2
10/19/2017  17:43:32.449206	-3.499119E-2	1.828100E-2	2.918892E-2	-1.014142E+1	2.477858E-2	2.963800E-2	7.205661E-2	3.419094E-2
10/19/2017  17:43:32.450206	-2.841070E-1	2.591253E-2	1.900811E-2	-1.013887E+1	1.202884E-2	2.709402E-2	7.205661E-2	2.147136E-2
								
10/19/2017  17:43:32.451206	-1.620911E-1	3.017961E-3	2.409852E-2	-1.012869E+1	2.477858E-2	1.654165E-3	7.714242E-2	3.164702E-2
10/19/2017  17:43:32.452206	-4.007518E-2	-2.069720E-3	1.391770E-2	-1.014142E+1	2.477858E-2	1.946206E-2	6.442791E-2	3.164702E-2
10/19/2017  17:43:32.453206	4.126874E-2	1.828100E-2	1.900811E-2	-1.014905E+1	2.222863E-2	9.286120E-3	7.459952E-2	3.164702E-2
10/19/2017  17:43:32.454206	5.906273E-2	1.573716E-2	1.391770E-2	-1.013632E+1	2.477858E-2	1.946206E-2	7.459952E-2	3.164702E-2
10/19/2017  17:43:32.455206	-2.990719E-2	1.064948E-2	1.137250E-2	-1.013887E+1	2.987847E-2	1.946206E-2	6.188501E-2	2.910311E-2
10/19/2017  17:43:32.456206	-1.951370E-1	8.105642E-3	1.137250E-2	-1.015669E+1	1.202884E-2	2.709402E-2	7.968532E-2	2.655919E-2
10/19/2017  17:43:32.457206	-1.465521E-2	1.064948E-2	1.646291E-2	-1.013378E+1	1.712873E-2	1.183011E-2	7.459952E-2	3.927877E-2
10/19/2017  17:43:32.458206	-8.837314E-2	1.319332E-2	1.391770E-2	-1.013632E+1	4.262821E-2	2.200605E-2	6.951371E-2	2.147136E-2
10/19/2017  17:43:32.459206	-7.566315E-2	1.828100E-2	2.664372E-2	-1.013378E+1	1.457878E-2	2.963800E-2	7.714242E-2	3.164702E-2
10/19/2017  17:43:32.460206	3.844384E-1	5.561801E-3	1.900811E-2	-1.012869E+1	2.222863E-2	1.183011E-2	7.459952E-2	3.164702E-2
10/19/2017  17:43:32.461206	4.073164E-1	1.319332E-2	1.391770E-2	-1.014651E+1	2.732853E-2	1.183011E-2	6.697081E-2	2.910311E-2
10/19/2017  17:43:32.462206	2.395446E-1	1.828100E-2	1.646291E-2	-1.013632E+1	1.967868E-2	1.946206E-2	7.205661E-2	3.419094E-2
10/19/2017  17:43:32.463206	1.785366E-1	1.573716E-2	2.155331E-2	-1.011596E+1	1.967868E-2	1.946206E-2	7.459952E-2	3.673486E-2
10/19/2017  17:43:32.464206	3.183465E-1	1.828100E-2	8.827299E-3	-1.013632E+1	2.987847E-2	1.437409E-2	7.205661E-2	1.892744E-2
10/19/2017  17:43:32.465206	1.582006E-1	1.828100E-2	2.155331E-2	-1.014651E+1	1.967868E-2	2.963800E-2	6.697081E-2	3.164702E-2
10/19/2017  17:43:32.466206	-3.753318E-2	1.319332E-2	2.409852E-2	-1.013632E+1	2.222863E-2	1.946206E-2	7.714242E-2	4.182269E-2
10/19/2017  17:43:32.467206	-1.010831E-1	1.828100E-2	1.391770E-2	-1.014651E+1	2.987847E-2	1.946206E-2	7.968532E-2	3.164702E-2
10/19/2017  17:43:32.468206	-6.549516E-2	2.082484E-2	3.173413E-2	-1.013632E+1	2.732853E-2	1.691808E-2	7.459952E-2	2.910311E-2
10/19/2017  17:43:32.469206	-2.154730E-1	8.105642E-3	1.646291E-2	-1.013378E+1	1.967868E-2	1.437409E-2	7.459952E-2	3.673486E-2
10/19/2017  17:43:32.470206	-4.086648E-1	1.319332E-2	1.137250E-2	-1.013887E+1	2.477858E-2	2.455003E-2	6.951371E-2	2.401527E-2
10/19/2017  17:43:32.471206	-2.536030E-1	1.828100E-2	1.646291E-2	-1.013632E+1	2.222863E-2	1.946206E-2	7.205661E-2	3.164702E-2
10/19/2017  17:43:32.472206	1.075862E+0	8.105642E-3	1.900811E-2	-1.013123E+1	2.477858E-2	2.200605E-2	7.205661E-2	3.164702E-2
10/19/2017  17:43:32.473206	5.395003E-1	5.561801E-3	1.137250E-2	-1.013123E+1	2.477858E-2	2.455003E-2	6.951371E-2	2.910311E-2
10/19/2017  17:43:32.474206	-2.536030E-1	1.319332E-2	1.391770E-2	-1.013378E+1	2.222863E-2	1.183011E-2	7.205661E-2	2.147136E-2
10/19/2017  17:43:32.475206	5.852563E-1	-4.613560E-3	1.646291E-2	-1.014142E+1	2.987847E-2	1.946206E-2	7.459952E-2	4.182269E-2
10/19/2017  17:43:32.476206	9.436779E-1	1.319332E-2	1.900811E-2	-1.013123E+1	2.477858E-2	2.963800E-2	6.951371E-2	2.910311E-2
10/19/2017  17:43:32.477206	-2.663130E-1	1.828100E-2	1.646291E-2	-1.013632E+1	9.478889E-3	2.709402E-2	7.459952E-2	2.910311E-2
10/19/2017  17:43:32.478206	-8.509724E-1	1.573716E-2	2.664372E-2	-1.013632E+1	2.477858E-2	1.946206E-2	7.205661E-2	2.910311E-2
10/19/2017  17:43:32.479206	4.937443E-1	1.319332E-2	1.900811E-2	-1.013632E+1	2.477858E-2	1.946206E-2	6.188501E-2	2.910311E-2
10/19/2017  17:43:32.480206	2.283311E+0	2.082484E-2	1.900811E-2	-1.013632E+1	2.222863E-2	2.963800E-2	7.459952E-2	2.147136E-2
10/19/2017  17:43:32.481206	2.827585E-1	1.573716E-2	2.155331E-2	-1.013632E+1	1.457878E-2	1.946206E-2	7.968532E-2	2.655919E-2
10/19/2017  17:43:32.482206	-1.313616E+0	5.561801E-3	1.137250E-2	-1.012869E+1	2.477858E-2	1.946206E-2	6.697081E-2	3.164702E-2
10/19/2017  17:43:32.483206	-1.087378E+0	1.319332E-2	1.900811E-2	-1.014651E+1	2.222863E-2	2.963800E-2	7.459952E-2	1.383961E-2
								
10/19/2017  17:43:32.484206	-2.485190E-1	1.573716E-2	1.900811E-2	-1.015160E+1	2.222863E-2	1.691808E-2	7.968532E-2	3.164702E-2
10/19/2017  17:43:32.485206	3.872675E-2	3.017961E-3	2.155331E-2	-1.013632E+1	2.732853E-2	1.691808E-2	7.459952E-2	2.910311E-2
10/19/2017  17:43:32.486206	1.584877E-2	1.319332E-2	1.900811E-2	-1.013378E+1	2.222863E-2	2.200605E-2	7.205661E-2	2.147136E-2
10/19/2017  17:43:32.487206	-3.222369E-1	8.105642E-3	1.391770E-2	-1.013632E+1	1.202884E-2	1.691808E-2	8.222822E-2	2.910311E-2
10/19/2017  17:43:32.488206	-2.891910E-1	1.064948E-2	1.900811E-2	-1.013632E+1	2.477858E-2	1.691808E-2	7.205661E-2	3.419094E-2
10/19/2017  17:43:32.489206	3.285145E-1	1.573716E-2	2.409852E-2	-1.013632E+1	2.732853E-2	2.455003E-2	6.951371E-2	2.401527E-2
10/19/2017  17:43:32.490206	-8.840184E-1	2.591253E-2	2.409852E-2	-1.014142E+1	1.202884E-2	2.709402E-2	7.714242E-2	2.910311E-2
10/19/2017  17:43:32.491206	-1.748298E+0	8.105642E-3	1.191689E-3	-1.013632E+1	2.477858E-2	-8.898203E-4	7.459952E-2	3.164702E-2
10/19/2017  17:43:32.492206	-4.722148E-1	5.561801E-3	8.827299E-3	-1.014651E+1	2.732853E-2	2.709402E-2	6.697081E-2	2.910311E-2
10/19/2017  17:43:32.493206	1.558841E+0	1.828100E-2	1.900811E-2	-1.014142E+1	1.712873E-2	1.946206E-2	7.459952E-2	1.638352E-2
10/19/2017  17:43:32.494206	8.623340E-1	2.082484E-2	2.664372E-2	-1.011850E+1	2.222863E-2	1.437409E-2	8.222822E-2	3.419094E-2
10/19/2017  17:43:32.495206	4.251104E-1	3.017961E-3	8.827299E-3	-1.012105E+1	2.987847E-2	1.946206E-2	6.951371E-2	3.164702E-2
10/19/2017  17:43:32.496206	-3.476569E-1	8.105642E-3	1.900811E-2	-1.015415E+1	1.457878E-2	2.709402E-2	6.951371E-2	3.419094E-2
10/19/2017  17:43:32.497206	-2.663130E-1	1.064948E-2	2.155331E-2	-1.013123E+1	1.967868E-2	1.946206E-2	8.222822E-2	3.164702E-2
10/19/2017  17:43:32.498206	-9.450264E-1	8.105642E-3	1.137250E-2	-1.013123E+1	3.242842E-2	1.437409E-2	7.714242E-2	2.655919E-2
10/19/2017  17:43:32.499206	-4.391688E-1	1.828100E-2	1.646291E-2	-1.015160E+1	1.967868E-2	2.963800E-2	7.205661E-2	2.401527E-2
10/19/2017  17:43:32.500206	6.538902E-1	1.064948E-2	2.155331E-2	-1.013632E+1	1.457878E-2	1.946206E-2	8.985693E-2	2.401527E-2
10/19/2017  17:43:32.501206	7.072721E-1	5.561801E-3	6.282096E-3	-1.014142E+1	2.987847E-2	9.286120E-3	7.205661E-2	3.673486E-2
10/19/2017  17:43:32.502206	1.093656E+0	2.082484E-2	1.137250E-2	-1.013632E+1	2.477858E-2	2.963800E-2	7.459952E-2	2.910311E-2
10/19/2017  17:43:32.503206	4.381074E-2	1.319332E-2	2.664372E-2	-1.012105E+1	1.457878E-2	2.455003E-2	8.477112E-2	3.164702E-2
10/19/2017  17:43:32.504206	-5.103448E-1	1.064948E-2	1.900811E-2	-1.013887E+1	2.987847E-2	1.691808E-2	6.951371E-2	3.419094E-2
10/19/2017  17:43:32.505206	-3.730769E-1	2.082484E-2	1.137250E-2	-1.014396E+1	2.732853E-2	1.691808E-2	6.188501E-2	2.147136E-2
10/19/2017  17:43:32.506206	-1.748011E-1	1.064948E-2	3.173413E-2	-1.014142E+1	1.712873E-2	2.963800E-2	8.222822E-2	2.910311E-2
10/19/2017  17:43:32.507206	4.632404E-1	5.561801E-3	1.137250E-2	-1.013123E+1	1.967868E-2	2.200605E-2	8.222822E-2	3.419094E-2
10/19/2017  17:43:32.508206	3.285145E-1	2.082484E-2	1.391770E-2	-1.013887E+1	3.497837E-2	1.946206E-2	6.951371E-2	2.147136E-2
10/19/2017  17:43:32.509206	1.670689E+0	1.064948E-2	1.646291E-2	-1.014142E+1	1.457878E-2	2.709402E-2	6.951371E-2	2.401527E-2
10/19/2017  17:43:32.510206	1.637643E+0	5.561801E-3	2.409852E-2	-1.012869E+1	1.712873E-2	1.183011E-2	7.968532E-2	3.927877E-2
10/19/2017  17:43:32.511206	-6.803716E-2	1.319332E-2	8.827299E-3	-1.013887E+1	2.987847E-2	2.200605E-2	6.951371E-2	3.419094E-2
10/19/2017  17:43:32.512206	-9.653623E-1	2.336868E-2	2.409852E-2	-1.014651E+1	2.477858E-2	3.218199E-2	7.968532E-2	2.910311E-2
10/19/2017  17:43:32.513206	-3.247789E-1	-2.069720E-3	2.155331E-2	-1.013632E+1	1.712873E-2	1.437409E-2	7.968532E-2	3.419094E-2
10/19/2017  17:43:32.514206	2.827585E-1	1.319332E-2	1.137250E-2	-1.013887E+1	2.477858E-2	1.183011E-2	6.951371E-2	2.401527E-2
10/19/2017  17:43:32.515206	-1.620911E-1	1.573716E-2	1.646291E-2	-1.015669E+1	2.477858E-2	1.946206E-2	7.205661E-2	3.164702E-2
10/19/2017  17:43:32.516206	-4.010389E-1	3.017961E-3	2.409852E-2	-1.013632E+1	1.457878E-2	1.946206E-2	8.222822E-2	3.927877E-2
								
10/19/2017  17:43:32.517206	-2.637710E-1	1.064948E-2	1.137250E-2	-1.013378E+1	1.202884E-2	1.946206E-2	7.205661E-2	2.910311E-2
10/19/2017  17:43:32.518206	9.538459E-1	1.828100E-2	1.646291E-2	-1.014396E+1	2.222863E-2	1.946206E-2	7.205661E-2	2.655919E-2
10/19/2017  17:43:32.519206	-4.798408E-1	1.064948E-2	1.900811E-2	-1.013632E+1	6.928941E-3	2.200605E-2	7.205661E-2	3.164702E-2
10/19/2017  17:43:32.520206	-1.163638E+0	1.319332E-2	1.137250E-2	-1.014142E+1	2.987847E-2	2.709402E-2	6.951371E-2	2.910311E-2
10/19/2017  17:43:32.521206	-6.018567E-1	1.828100E-2	1.900811E-2	-1.014905E+1	1.457878E-2	2.709402E-2	8.222822E-2	3.927877E-2
10/19/2017  17:43:32.522206	1.236008E+0	1.064948E-2	2.155331E-2	-1.013887E+1	1.967868E-2	1.437409E-2	7.205661E-2	3.673486E-2
10/19/2017  17:43:32.523206	1.581719E+0	1.064948E-2	8.827299E-3	-1.014142E+1	2.477858E-2	2.200605E-2	6.951371E-2	3.673486E-2
10/19/2017  17:43:32.524206	5.903402E-1	1.319332E-2	2.155331E-2	-1.011850E+1	1.712873E-2	1.691808E-2	8.985693E-2	3.164702E-2
10/19/2017  17:43:32.525206	1.505746E-1	1.828100E-2	2.409852E-2	-1.013632E+1	2.732853E-2	1.691808E-2	7.205661E-2	3.164702E-2
10/19/2017  17:43:32.526206	1.200707E-1	1.573716E-2	1.137250E-2	-1.014905E+1	2.477858E-2	2.963800E-2	6.697081E-2	2.401527E-2
10/19/2017  17:43:32.527206	-4.487215E-3	5.561801E-3	1.391770E-2	-1.013632E+1	9.478889E-3	1.691808E-2	7.968532E-2	2.655919E-2
10/19/2017  17:43:32.528206	3.030945E-1	1.319332E-2	1.646291E-2	-1.014142E+1	2.222863E-2	1.183011E-2	6.951371E-2	3.673486E-2
10/19/2017  17:43:32.529206	4.124004E-1	2.082484E-2	3.173413E-2	-1.014142E+1	2.222863E-2	3.218199E-2	7.459952E-2	3.164702E-2
10/19/2017  17:43:32.530206	1.022480E+0	1.573716E-2	1.646291E-2	-1.013887E+1	1.457878E-2	1.946206E-2	8.222822E-2	3.164702E-2
10/19/2017  17:43:32.531206	6.157602E-1	1.573716E-2	1.191689E-3	-1.014142E+1	2.732853E-2	1.183011E-2	6.697081E-2	2.910311E-2
10/19/2017  17:43:32.532206	1.683686E-1	1.319332E-2	2.664372E-2	-1.014651E+1	1.712873E-2	2.709402E-2	8.222822E-2	2.401527E-2
10/19/2017  17:43:32.533206	-1.468391E-1	5.561801E-3	2.409852E-2	-1.012614E+1	1.712873E-2	3.472597E-2	8.222822E-2	4.182269E-2
10/19/2017  17:43:32.534206	-4.493368E-1	3.354405E-2	1.137250E-2	-1.013123E+1	3.242842E-2	1.946206E-2	7.205661E-2	3.164702E-2
10/19/2017  17:43:32.535206	-5.205127E-1	1.828100E-2	1.900811E-2	-1.014905E+1	1.967868E-2	2.709402E-2	7.968532E-2	3.164702E-2
10/19/2017  17:43:32.536206	-4.900088E-1	4.741205E-4	1.646291E-2	-1.014651E+1	1.202884E-2	1.437409E-2	6.951371E-2	3.164702E-2
10/19/2017  17:43:32.537206	-1.442971E-1	1.064948E-2	8.827299E-3	-1.013887E+1	1.967868E-2	1.946206E-2	7.459952E-2	2.910311E-2
10/19/2017  17:43:32.538206	-1.265031E-1	1.319332E-2	2.155331E-2	-1.013123E+1	3.497837E-2	2.200605E-2	7.459952E-2	2.910311E-2
10/19/2017  17:43:32.539206	-5.278517E-2	1.064948E-2	1.900811E-2	-1.013887E+1	2.222863E-2	1.691808E-2	7.205661E-2	3.927877E-2
10/19/2017  17:43:32.540206	-2.990719E-2	1.064948E-2	2.155331E-2	-1.013632E+1	1.712873E-2	1.946206E-2	6.697081E-2	2.147136E-2
10/19/2017  17:43:32.541206	-2.536030E-1	1.319332E-2	1.137250E-2	-1.013632E+1	2.477858E-2	1.946206E-2	6.951371E-2	3.164702E-2
10/19/2017  17:43:32.542206	7.177272E-2	8.105642E-3	2.155331E-2	-1.013378E+1	2.477858E-2	1.691808E-2	7.968532E-2	4.691052E-2
10/19/2017  17:43:32.543206	2.242926E-1	1.573716E-2	2.155331E-2	-1.012105E+1	2.987847E-2	2.455003E-2	7.205661E-2	3.164702E-2
10/19/2017  17:43:32.544206	-1.945217E-3	8.105642E-3	1.900811E-2	-1.013632E+1	2.477858E-2	1.946206E-2	7.205661E-2	3.164702E-2
10/19/2017  17:43:32.545206	3.081785E-1	5.561801E-3	1.391770E-2	-1.013887E+1	2.222863E-2	4.198150E-3	6.951371E-2	3.927877E-2
10/19/2017  17:43:32.546206	1.076477E-2	8.105642E-3	1.646291E-2	-1.013632E+1	2.987847E-2	2.200605E-2	6.697081E-2	3.164702E-2
10/19/2017  17:43:32.547206	-2.459770E-1	8.105642E-3	1.900811E-2	-1.014142E+1	1.967868E-2	2.709402E-2	8.222822E-2	2.655919E-2
10/19/2017  17:43:32.548206	-1.112511E-1	1.064948E-2	8.827299E-3	-1.013123E+1	2.477858E-2	9.286120E-3	7.459952E-2	3.927877E-2
10/19/2017  17:43:32.549206	1.073607E-1	5.561801E-3	1.391770E-2	-1.015160E+1	2.477858E-2	2.709402E-2	6.697081E-2	2.401527E-2
								
10/19/2017  17:43:32.550206	4.149424E-1	2.336868E-2	1.900811E-2	-1.014651E+1	9.478889E-3	2.709402E-2	7.968532E-2	2.910311E-2
10/19/2017  17:43:32.551206	5.598363E-1	1.319332E-2	1.646291E-2	-1.013632E+1	2.477858E-2	1.691808E-2	6.697081E-2	3.927877E-2
10/19/2017  17:43:32.552206	4.479884E-1	2.082484E-2	1.391770E-2	-1.014142E+1	2.987847E-2	3.218199E-2	7.205661E-2	2.655919E-2
10/19/2017  17:43:32.553206	4.352784E-1	1.573716E-2	2.409852E-2	-1.013632E+1	1.202884E-2	1.946206E-2	7.205661E-2	3.164702E-2
10/19/2017  17:43:32.554206	-2.053050E-1	1.319332E-2	1.646291E-2	-1.013887E+1	1.967868E-2	1.691808E-2	7.459952E-2	2.401527E-2
10/19/2017  17:43:32.555206	-1.493811E-1	3.608789E-2	1.646291E-2	-1.014651E+1	2.732853E-2	2.709402E-2	6.697081E-2	2.655919E-2
10/19/2017  17:43:32.556206	-1.544651E-1	1.319332E-2	2.918892E-2	-1.014142E+1	1.457878E-2	1.946206E-2	7.968532E-2	2.910311E-2
10/19/2017  17:43:32.557206	-1.570071E-1	-2.069720E-3	1.646291E-2	-1.012614E+1	2.477858E-2	2.455003E-2	7.714242E-2	2.910311E-2
10/19/2017  17:43:32.558206	-1.315871E-1	1.064948E-2	1.646291E-2	-1.014651E+1	2.222863E-2	2.455003E-2	7.459952E-2	2.147136E-2
10/19/2017  17:43:32.559206	-1.773431E-1	1.064948E-2	2.664372E-2	-1.013378E+1	1.202884E-2	2.455003E-2	7.205661E-2	4.182269E-2
10/19/2017  17:43:32.560206	-2.002210E-1	8.105642E-3	1.646291E-2	-1.012614E+1	2.222863E-2	1.691808E-2	7.968532E-2	3.673486E-2
10/19/2017  17:43:32.561206	-8.583114E-2	1.828100E-2	1.646291E-2	-1.014142E+1	2.987847E-2	2.455003E-2	7.205661E-2	2.910311E-2
10/19/2017  17:43:32.562206	4.126874E-2	1.064948E-2	1.900811E-2	-1.013887E+1	1.967868E-2	1.691808E-2	7.714242E-2	3.164702E-2
10/19/2017  17:43:32.563206	1.480326E-1	8.105642E-3	1.391770E-2	-1.012869E+1	2.222863E-2	1.183011E-2	7.205661E-2	4.436661E-2
10/19/2017  17:43:32.564206	3.208885E-1	1.319332E-2	1.137250E-2	-1.012105E+1	2.732853E-2	1.437409E-2	7.205661E-2	3.164702E-2
10/19/2017  17:43:32.565206	2.093276E-2	1.828100E-2	2.664372E-2	-1.013887E+1	2.222863E-2	1.946206E-2	7.459952E-2	3.164702E-2
10/19/2017  17:43:32.566206	-4.162908E-1	1.064948E-2	1.646291E-2	-1.013632E+1	2.477858E-2	2.455003E-2	6.442791E-2	3.673486E-2
10/19/2017  17:43:32.567206	-4.239168E-1	3.017961E-3	6.282096E-3	-1.013887E+1	2.222863E-2	1.691808E-2	6.697081E-2	2.655919E-2
10/19/2017  17:43:32.568206	4.047744E-1	1.828100E-2	1.900811E-2	-1.014142E+1	1.967868E-2	2.200605E-2	6.442791E-2	2.401527E-2
10/19/2017  17:43:32.569206	2.929265E-1	1.319332E-2	3.173413E-2	-1.013632E+1	2.987847E-2	2.200605E-2	7.459952E-2	3.164702E-2
10/19/2017  17:43:32.570206	-6.041116E-2	1.064948E-2	1.900811E-2	-1.013887E+1	2.477858E-2	1.946206E-2	7.459952E-2	2.910311E-2
10/19/2017  17:43:32.571206	-2.510610E-1	1.064948E-2	1.137250E-2	-1.014142E+1	1.457878E-2	2.455003E-2	7.714242E-2	2.147136E-2
10/19/2017  17:43:32.572206	-2.891910E-1	1.319332E-2	2.664372E-2	-1.014142E+1	1.712873E-2	2.200605E-2	8.222822E-2	3.164702E-2
10/19/2017  17:43:32.573206	5.143673E-2	5.561801E-3	1.900811E-2	-1.013378E+1	2.477858E-2	3.218199E-2	7.459952E-2	3.419094E-2
10/19/2017  17:43:32.574206	1.607426E-1	3.100021E-2	1.646291E-2	-1.013887E+1	3.497837E-2	1.946206E-2	7.205661E-2	3.164702E-2
10/19/2017  17:43:32.575206	6.160473E-2	1.064948E-2	1.900811E-2	-1.013632E+1	2.222863E-2	1.691808E-2	7.205661E-2	3.419094E-2
10/19/2017  17:43:32.576206	1.076477E-2	1.319332E-2	1.646291E-2	-1.011850E+1	1.202884E-2	1.946206E-2	6.951371E-2	3.164702E-2
10/19/2017  17:43:32.577206	-9.345713E-2	1.064948E-2	8.827299E-3	-1.013887E+1	2.732853E-2	1.946206E-2	7.205661E-2	3.164702E-2
10/19/2017  17:43:32.578206	-2.256410E-1	2.336868E-2	1.900811E-2	-1.014396E+1	2.477858E-2	2.709402E-2	8.477112E-2	2.655919E-2
10/19/2017  17:43:32.579206	-1.211321E-2	1.064948E-2	3.173413E-2	-1.012869E+1	1.967868E-2	1.946206E-2	7.205661E-2	3.673486E-2
10/19/2017  17:43:32.580206	-3.756189E-1	1.064948E-2	1.900811E-2	-1.013378E+1	1.712873E-2	1.183011E-2	6.188501E-2	2.910311E-2
10/19/2017  17:43:32.581206	3.872675E-2	2.082484E-2	1.137250E-2	-1.013632E+1	2.222863E-2	2.709402E-2	7.714242E-2	2.401527E-2
10/19/2017  17:43:32.582206	-1.036251E-1	1.319332E-2	2.664372E-2	-1.014651E+1	2.477858E-2	1.691808E-2	8.222822E-2	3.164702E-2
								
10/19/2017  17:43:32.583206	6.160473E-2	5.561801E-3	2.155331E-2	-1.011086E+1	2.477858E-2	2.455003E-2	7.459952E-2	3.673486E-2
10/19/2017  17:43:32.584206	8.140360E-1	1.573716E-2	8.827299E-3	-1.013887E+1	2.987847E-2	1.691808E-2	6.951371E-2	1.383961E-2
10/19/2017  17:43:32.585206	5.166223E-1	1.828100E-2	2.409852E-2	-1.014396E+1	2.222863E-2	2.709402E-2	7.968532E-2	2.147136E-2
10/19/2017  17:43:32.586206	-4.645888E-1	3.017961E-3	1.391770E-2	-1.013378E+1	1.202884E-2	1.946206E-2	7.968532E-2	3.673486E-2
10/19/2017  17:43:32.587206	8.343720E-1	1.828100E-2	1.137250E-2	-1.013378E+1	2.477858E-2	1.946206E-2	7.968532E-2	3.164702E-2
10/19/2017  17:43:32.588206	9.538459E-1	1.828100E-2	1.900811E-2	-1.014396E+1	2.222863E-2	2.455003E-2	7.205661E-2	2.910311E-2
10/19/2017  17:43:32.589206	5.928822E-1	1.064948E-2	2.155331E-2	-1.013632E+1	1.457878E-2	2.200605E-2	7.205661E-2	3.673486E-2
10/19/2017  17:43:32.590206	-1.112511E-1	3.017961E-3	2.918892E-2	-1.012614E+1	2.732853E-2	9.286120E-3	7.459952E-2	3.419094E-2
10/19/2017  17:43:32.591206	-3.244919E-2	2.082484E-2	1.137250E-2	-1.013632E+1	3.242842E-2	1.946206E-2	7.205661E-2	3.419094E-2
10/19/2017  17:43:32.592206	-6.295316E-2	1.319332E-2	1.900811E-2	-1.013887E+1	2.222863E-2	4.744590E-2	7.205661E-2	3.164702E-2
10/19/2017  17:43:32.593206	-7.029213E-3	2.336868E-2	1.900811E-2	-1.012614E+1	1.457878E-2	2.455003E-2	7.205661E-2	3.419094E-2
10/19/2017  17:43:32.594206	-2.129310E-1	1.573716E-2	1.391770E-2	-1.013887E+1	2.222863E-2	1.183011E-2	7.205661E-2	2.401527E-2
10/19/2017  17:43:32.595206	-1.137931E-1	5.561801E-3	2.155331E-2	-1.014651E+1	1.712873E-2	2.709402E-2	6.697081E-2	2.401527E-2
10/19/2017  17:43:32.596206	-7.187886E-1	1.828100E-2	1.900811E-2	-1.013632E+1	1.967868E-2	2.200605E-2	7.968532E-2	3.164702E-2
10/19/2017  17:43:32.597206	-4.290008E-1	-2.069720E-3	1.646291E-2	-1.013378E+1	1.202884E-2	1.183011E-2	7.459952E-2	3.419094E-2
10/19/2017  17:43:32.598206	7.937001E-1	1.319332E-2	8.827299E-3	-1.014142E+1	2.732853E-2	1.946206E-2	6.951371E-2	3.164702E-2
10/19/2017  17:43:32.599206	1.388528E+0	2.082484E-2	2.155331E-2	-1.014142E+1	1.712873E-2	2.963800E-2	8.222822E-2	2.655919E-2
10/19/2017  17:43:32.600206	9.767239E-1	5.561801E-3	1.900811E-2	-1.013123E+1	1.712873E-2	2.200605E-2	8.222822E-2	3.673486E-2
10/19/2017  17:43:32.601206	-5.535587E-1	1.064948E-2	1.137250E-2	-1.013123E+1	2.987847E-2	1.437409E-2	7.205661E-2	3.419094E-2
10/19/2017  17:43:32.602206	-1.163351E-1	1.828100E-2	1.900811E-2	-1.014651E+1	1.967868E-2	2.200605E-2	6.951371E-2	2.147136E-2
10/19/2017  17:43:32.603206	6.513482E-1	8.105642E-3	1.900811E-2	-1.013887E+1	1.457878E-2	2.200605E-2	7.968532E-2	3.164702E-2
10/19/2017  17:43:32.604206	9.513039E-1	1.064948E-2	1.646291E-2	-1.014651E+1	2.222863E-2	2.455003E-2	7.459952E-2	3.164702E-2
10/19/2017  17:43:32.605206	3.590185E-1	1.064948E-2	1.646291E-2	-1.013632E+1	3.242842E-2	2.200605E-2	6.951371E-2	2.401527E-2
10/19/2017  17:43:32.606206	7.937001E-1	8.105642E-3	2.409852E-2	-1.014905E+1	1.202884E-2	2.709402E-2	7.459952E-2	3.164702E-2
10/19/2017  17:43:32.607206	3.208885E-1	4.741205E-4	1.137250E-2	-1.013378E+1	1.712873E-2	9.286120E-3	7.459952E-2	3.419094E-2
10/19/2017  17:43:32.608206	-1.183974E+0	1.573716E-2	8.827299E-3	-1.014142E+1	2.987847E-2	2.200605E-2	6.442791E-2	3.164702E-2
10/19/2017  17:43:32.609206	-8.026745E-1	2.082484E-2	3.173413E-2	-1.014142E+1	2.222863E-2	3.218199E-2	7.459952E-2	3.164702E-2
10/19/2017  17:43:32.610206	-3.044429E-1	2.336868E-2	2.155331E-2	-1.012869E+1	1.712873E-2	2.200605E-2	7.459952E-2	2.910311E-2
10/19/2017  17:43:32.611206	-3.730769E-1	1.064948E-2	1.900811E-2	-1.014142E+1	2.477858E-2	1.437409E-2	7.714242E-2	2.401527E-2
10/19/2017  17:43:32.612206	6.716842E-1	1.319332E-2	1.900811E-2	-1.014905E+1	1.967868E-2	2.709402E-2	7.205661E-2	3.164702E-2
10/19/2017  17:43:32.613206	-7.137046E-1	1.064948E-2	2.155331E-2	-1.013378E+1	1.967868E-2	2.963800E-2	7.968532E-2	2.910311E-2
10/19/2017  17:43:32.614206	-8.052165E-1	8.105642E-3	1.900811E-2	-1.013632E+1	2.732853E-2	2.200605E-2	7.205661E-2	2.910311E-2
10/19/2017  17:43:32.615206	-4.086648E-1	1.828100E-2	2.409852E-2	-1.014651E+1	2.222863E-2	2.455003E-2	7.205661E-2	3.164702E-2
								
10/19/2017  17:43:32.616206	-7.391246E-1	-2.069720E-3	2.409852E-2	-1.014142E+1	6.928941E-3	1.691808E-2	7.968532E-2	2.910311E-2
10/19/2017  17:43:32.617206	3.641025E-1	1.064948E-2	1.137250E-2	-1.013378E+1	1.967868E-2	2.709402E-2	7.459952E-2	2.910311E-2
10/19/2017  17:43:32.618206	2.802165E-1	2.082484E-2	1.900811E-2	-1.014396E+1	4.007827E-2	2.200605E-2	8.222822E-2	3.164702E-2
10/19/2017  17:43:32.619206	7.581121E-1	1.319332E-2	1.137250E-2	-1.013123E+1	1.712873E-2	2.200605E-2	6.951371E-2	3.164702E-2
10/19/2017  17:43:32.620206	-6.295316E-2	1.064948E-2	1.391770E-2	-1.013632E+1	1.967868E-2	2.455003E-2	7.459952E-2	2.147136E-2
10/19/2017  17:43:32.621206	6.615162E-1	1.573716E-2	1.137250E-2	-1.014396E+1	2.222863E-2	2.963800E-2	7.714242E-2	2.655919E-2
10/19/2017  17:43:32.622206	1.195336E+0	1.319332E-2	2.664372E-2	-1.013378E+1	1.457878E-2	1.946206E-2	7.968532E-2	3.927877E-2
10/19/2017  17:43:32.623206	-1.671751E-1	8.105642E-3	8.827299E-3	-1.013887E+1	2.477858E-2	2.455003E-2	6.442791E-2	3.164702E-2
10/19/2017  17:43:32.624206	-2.103890E-1	2.082484E-2	1.137250E-2	-1.014905E+1	1.967868E-2	2.200605E-2	7.205661E-2	1.892744E-2
10/19/2017  17:43:32.625206	-2.002210E-1	1.064948E-2	1.646291E-2	-1.014142E+1	2.477858E-2	2.200605E-2	7.714242E-2	3.927877E-2
10/19/2017  17:43:32.626206	-7.820515E-2	8.105642E-3	1.900811E-2	-1.013378E+1	2.732853E-2	2.200605E-2	6.951371E-2	3.164702E-2
10/19/2017  17:43:32.627206	9.719269E-2	2.591253E-2	1.391770E-2	-1.013887E+1	2.222863E-2	2.709402E-2	8.222822E-2	2.655919E-2
10/19/2017  17:43:32.628206	1.276967E-1	8.105642E-3	3.682453E-2	-1.013378E+1	2.477858E-2	1.183011E-2	7.714242E-2	3.673486E-2
10/19/2017  17:43:32.629206	2.601676E-2	5.561801E-3	1.137250E-2	-1.014142E+1	2.732853E-2	2.200605E-2	5.934210E-2	3.164702E-2
10/19/2017  17:43:32.630206	4.889474E-2	1.319332E-2	1.646291E-2	-1.013887E+1	1.457878E-2	3.218199E-2	7.714242E-2	3.164702E-2
10/19/2017  17:43:32.631206	1.076477E-2	1.828100E-2	1.900811E-2	-1.014142E+1	2.222863E-2	1.946206E-2	7.459952E-2	3.673486E-2
10/19/2017  17:43:32.632206	-2.736519E-2	1.319332E-2	1.137250E-2	-1.014651E+1	3.752832E-2	1.691808E-2	6.697081E-2	3.419094E-2
10/19/2017  17:43:32.633206	7.177272E-2	1.064948E-2	2.155331E-2	-1.013887E+1	1.202884E-2	2.709402E-2	7.968532E-2	2.147136E-2
10/19/2017  17:43:32.634206	6.923072E-2	5.561801E-3	1.137250E-2	-1.012869E+1	1.967868E-2	-8.898203E-4	7.459952E-2	3.164702E-2
10/19/2017  17:43:32.635206	1.177542E+0	1.064948E-2	1.391770E-2	-1.014651E+1	3.242842E-2	2.200605E-2	6.951371E-2	3.419094E-2
10/19/2017  17:43:32.636206	1.281764E+0	1.064948E-2	2.409852E-2	-1.014396E+1	1.457878E-2	2.963800E-2	8.222822E-2	2.401527E-2
10/19/2017  17:43:32.637206	1.347856E+0	3.017961E-3	2.664372E-2	-1.012614E+1	2.987847E-2	1.437409E-2	7.205661E-2	3.419094E-2
10/19/2017  17:43:32.638206	5.906273E-2	1.573716E-2	8.827299E-3	-1.013887E+1	2.732853E-2	1.946206E-2	6.951371E-2	3.164702E-2
10/19/2017  17:43:32.639206	-9.450264E-1	1.828100E-2	1.900811E-2	-1.014396E+1	2.477858E-2	2.200605E-2	6.951371E-2	3.164702E-2
10/19/2017  17:43:32.640206	-7.416665E-1	1.319332E-2	2.409852E-2	-1.013378E+1	1.967868E-2	2.200605E-2	7.459952E-2	3.673486E-2
10/19/2017  17:43:32.641206	-7.620025E-1	1.064948E-2	1.137250E-2	-1.013887E+1	2.477858E-2	1.946206E-2	6.951371E-2	1.892744E-2
10/19/2017  17:43:32.642206	-1.061958E+0	1.573716E-2	1.646291E-2	-1.014396E+1	1.457878E-2	2.709402E-2	7.459952E-2	2.910311E-2
10/19/2017  17:43:32.643206	-1.984703E+0	8.105642E-3	1.900811E-2	-1.013632E+1	2.222863E-2	1.437409E-2	7.714242E-2	2.910311E-2
10/19/2017  17:43:32.644206	1.330677E-2	1.319332E-2	1.137250E-2	-1.014651E+1	2.732853E-2	1.946206E-2	7.205661E-2	3.164702E-2
10/19/2017  17:43:32.645206	1.152122E+0	2.845637E-2	2.155331E-2	-1.014651E+1	1.967868E-2	2.963800E-2	8.222822E-2	2.910311E-2
10/19/2017  17:43:32.646206	2.372281E+0	5.561801E-3	2.155331E-2	-1.012614E+1	1.457878E-2	1.437409E-2	6.697081E-2	3.927877E-2
10/19/2017  17:43:32.647206	6.971042E-1	5.561801E-3	1.137250E-2	-1.013123E+1	1.967868E-2	2.455003E-2	6.951371E-2	3.419094E-2
10/19/2017  17:43:32.648206	-6.908266E-1	2.336868E-2	1.900811E-2	-1.014905E+1	2.477858E-2	2.455003E-2	7.714242E-2	3.164702E-2
								
10/19/2017  17:43:32.649206	-5.383067E-1	1.064948E-2	3.427933E-2	-1.013887E+1	9.478889E-3	1.691808E-2	7.968532E-2	3.927877E-2
10/19/2017  17:43:32.650206	-4.772988E-1	1.319332E-2	8.827299E-3	-1.014142E+1	2.477858E-2	1.946206E-2	6.951371E-2	2.910311E-2
10/19/2017  17:43:32.651206	-9.854113E-2	1.828100E-2	1.391770E-2	-1.015160E+1	9.478889E-3	2.709402E-2	7.968532E-2	2.401527E-2
10/19/2017  17:43:32.652206	-1.945217E-3	-2.069720E-3	1.900811E-2	-1.013632E+1	1.712873E-2	1.183011E-2	7.205661E-2	3.927877E-2
10/19/2017  17:43:32.653206	-4.007518E-2	1.064948E-2	1.900811E-2	-1.013887E+1	1.712873E-2	9.286120E-3	7.205661E-2	2.910311E-2
10/19/2017  17:43:32.654206	7.685671E-2	2.591253E-2	2.409852E-2	-1.013378E+1	1.967868E-2	2.200605E-2	7.205661E-2	3.673486E-2
10/19/2017  17:43:32.655206	1.658266E-1	1.064948E-2	2.155331E-2	-1.013887E+1	2.987847E-2	9.286120E-3	6.697081E-2	3.419094E-2
10/19/2017  17:43:32.656206	1.175287E-1	8.105642E-3	2.155331E-2	-1.014905E+1	2.477858E-2	2.709402E-2	7.968532E-2	2.401527E-2
10/19/2017  17:43:32.657206	1.302387E-1	8.105642E-3	2.155331E-2	-1.012359E+1	1.457878E-2	1.946206E-2	8.222822E-2	3.673486E-2
10/19/2017  17:43:32.658206	1.099027E-1	1.573716E-2	1.137250E-2	-1.013378E+1	4.262821E-2	2.200605E-2	6.951371E-2	2.147136E-2
10/19/2017  17:43:32.659206	5.967806E-4	1.573716E-2	2.409852E-2	-1.013887E+1	1.457878E-2	2.963800E-2	7.714242E-2	2.401527E-2
10/19/2017  17:43:32.660206	-1.945217E-3	8.105642E-3	2.155331E-2	-1.013123E+1	1.457878E-2	1.437409E-2	8.985693E-2	3.164702E-2
10/19/2017  17:43:32.661206	1.022767E-1	1.064948E-2	6.282096E-3	-1.014905E+1	2.477858E-2	1.946206E-2	6.697081E-2	3.164702E-2
10/19/2017  17:43:32.662206	7.685671E-2	2.082484E-2	1.646291E-2	-1.013632E+1	2.222863E-2	2.455003E-2	7.714242E-2	4.182269E-2
10/19/2017  17:43:32.663206	1.607426E-1	1.573716E-2	1.900811E-2	-1.012359E+1	1.967868E-2	1.691808E-2	7.205661E-2	3.673486E-2
10/19/2017  17:43:32.664206	8.956670E-2	1.064948E-2	6.282096E-3	-1.014142E+1	2.477858E-2	1.691808E-2	6.951371E-2	2.147136E-2
10/19/2017  17:43:32.665206	3.618475E-2	1.828100E-2	2.664372E-2	-1.015924E+1	1.457878E-2	2.709402E-2	8.222822E-2	3.164702E-2
10/19/2017  17:43:32.666206	1.839076E-2	3.017961E-3	2.918892E-2	-1.013632E+1	2.477858E-2	1.946206E-2	6.951371E-2	3.673486E-2
10/19/2017  17:43:32.667206	1.584877E-2	1.319332E-2	1.137250E-2	-1.013123E+1	3.242842E-2	1.946206E-2	7.205661E-2	2.910311E-2
10/19/2017  17:43:32.668206	4.635274E-2	1.573716E-2	3.427933E-2	-1.014142E+1	1.457878E-2	1.691808E-2	8.222822E-2	2.655919E-2
10/19/2017  17:43:32.669206	4.635274E-2	3.017961E-3	1.900811E-2	-1.013123E+1	1.457878E-2	1.437409E-2	7.205661E-2	3.164702E-2
10/19/2017  17:43:32.670206	-2.228120E-2	2.082484E-2	8.827299E-3	-1.014651E+1	1.967868E-2	2.455003E-2	6.697081E-2	2.401527E-2
10/19/2017  17:43:32.671206	1.584877E-2	1.828100E-2	2.155331E-2	-1.014905E+1	1.457878E-2	1.946206E-2	7.968532E-2	3.164702E-2
10/19/2017  17:43:32.672206	1.584877E-2	8.105642E-3	1.900811E-2	-1.013123E+1	2.477858E-2	1.183011E-2	7.714242E-2	3.927877E-2
10/19/2017  17:43:32.673206	3.618475E-2	3.017961E-3	1.646291E-2	-1.015669E+1	1.967868E-2	2.963800E-2	6.951371E-2	2.910311E-2
10/19/2017  17:43:32.674206	1.076477E-2	1.828100E-2	2.664372E-2	-1.014651E+1	1.712873E-2	2.455003E-2	7.968532E-2	2.401527E-2
10/19/2017  17:43:32.675206	8.956670E-2	2.591253E-2	1.900811E-2	-1.013632E+1	3.242842E-2	1.691808E-2	7.968532E-2	2.655919E-2
10/19/2017  17:43:32.676206	3.138778E-3	1.064948E-2	1.391770E-2	-1.012869E+1	1.967868E-2	1.946206E-2	6.697081E-2	3.164702E-2
10/19/2017  17:43:32.677206	1.124447E-1	5.561801E-3	1.900811E-2	-1.013887E+1	3.242842E-2	2.200605E-2	7.968532E-2	2.655919E-2
10/19/2017  17:43:32.678206	7.177272E-2	1.064948E-2	1.391770E-2	-1.013632E+1	2.477858E-2	2.200605E-2	7.205661E-2	4.182269E-2
10/19/2017  17:43:32.679206	8.222774E-3	1.064948E-2	1.137250E-2	-1.013378E+1	2.477858E-2	2.455003E-2	6.697081E-2	3.419094E-2
10/19/2017  17:43:32.680206	-2.103890E-1	1.828100E-2	2.155331E-2	-1.013378E+1	2.222863E-2	2.963800E-2	7.205661E-2	2.147136E-2
10/19/2017  17:43:32.681206	-3.756189E-1	8.105642E-3	2.409852E-2	-1.013632E+1	1.967868E-2	1.437409E-2	7.968532E-2	2.401527E-2
								
10/19/2017  17:43:32.682206	3.818964E-1	5.561801E-3	6.282096E-3	-1.012869E+1	3.242842E-2	1.691808E-2	6.697081E-2	3.164702E-2
10/19/2017  17:43:32.683206	-1.544651E-1	1.573716E-2	2.409852E-2	-1.013887E+1	2.222863E-2	2.963800E-2	8.222822E-2	2.147136E-2
10/19/2017  17:43:32.684206	2.014146E-1	8.105642E-3	2.664372E-2	-1.013632E+1	1.712873E-2	1.946206E-2	8.477112E-2	3.673486E-2
10/19/2017  17:43:32.685206	9.665559E-1	8.105642E-3	1.137250E-2	-1.012614E+1	2.732853E-2	1.946206E-2	6.951371E-2	2.910311E-2
10/19/2017  17:43:32.686206	4.861183E-1	1.573716E-2	1.900811E-2	-1.014142E+1	1.967868E-2	2.963800E-2	6.951371E-2	2.147136E-2
10/19/2017  17:43:32.687206	-5.024317E-2	4.741205E-4	1.646291E-2	-1.014142E+1	9.478889E-3	1.691808E-2	7.968532E-2	2.655919E-2
10/19/2017  17:43:32.688206	-5.532717E-2	8.105642E-3	1.391770E-2	-1.012869E+1	2.732853E-2	1.691808E-2	7.714242E-2	3.164702E-2
10/19/2017  17:43:32.689206	-2.536030E-1	1.573716E-2	2.664372E-2	-1.014142E+1	2.987847E-2	2.455003E-2	6.697081E-2	2.401527E-2
10/19/2017  17:43:32.690206	-1.646331E-1	8.105642E-3	1.900811E-2	-1.014142E+1	1.457878E-2	1.946206E-2	7.205661E-2	2.910311E-2
10/19/2017  17:43:32.691206	-1.570071E-1	5.561801E-3	8.827299E-3	-1.013632E+1	9.478889E-3	1.654165E-3	7.459952E-2	3.164702E-2
10/19/2017  17:43:32.692206	-1.646331E-1	1.064948E-2	1.137250E-2	-1.013887E+1	2.477858E-2	1.946206E-2	7.205661E-2	3.164702E-2
10/19/2017  17:43:32.693206	2.217506E-1	1.319332E-2	1.646291E-2	-1.013632E+1	1.712873E-2	3.472597E-2	7.459952E-2	3.164702E-2
10/19/2017  17:43:32.694206	3.158045E-1	1.828100E-2	1.391770E-2	-1.011596E+1	2.477858E-2	1.437409E-2	7.459952E-2	3.419094E-2
10/19/2017  17:43:32.695206	2.624225E-1	1.828100E-2	1.137250E-2	-1.013887E+1	2.987847E-2	1.946206E-2	6.951371E-2	1.129569E-2
10/19/2017  17:43:32.696206	1.226127E-1	8.105642E-3	2.409852E-2	-1.014651E+1	1.457878E-2	2.963800E-2	7.968532E-2	3.164702E-2
10/19/2017  17:43:32.697206	-1.087091E-1	5.561801E-3	2.155331E-2	-1.012614E+1	1.967868E-2	2.455003E-2	7.205661E-2	3.673486E-2
10/19/2017  17:43:32.698206	-3.222369E-1	1.319332E-2	1.137250E-2	-1.014142E+1	3.497837E-2	1.946206E-2	7.205661E-2	3.164702E-2
10/19/2017  17:43:32.699206	2.929265E-1	1.573716E-2	2.155331E-2	-1.013632E+1	2.222863E-2	2.963800E-2	7.205661E-2	3.164702E-2
10/19/2017  17:43:32.700206	2.395446E-1	1.064948E-2	1.900811E-2	-1.013632E+1	6.928941E-3	1.691808E-2	6.188501E-2	3.164702E-2
10/19/2017  17:43:32.701206	-1.798851E-1	1.064948E-2	6.282096E-3	-1.013887E+1	2.987847E-2	1.946206E-2	6.951371E-2	2.910311E-2
10/19/2017  17:43:32.702206	-7.492925E-1	2.082484E-2	2.409852E-2	-1.013887E+1	2.477858E-2	2.709402E-2	7.459952E-2	3.419094E-2
10/19/2017  17:43:32.703206	-7.925065E-1	8.105642E-3	1.900811E-2	-1.012359E+1	1.967868E-2	2.709402E-2	7.205661E-2	3.164702E-2
10/19/2017  17:43:32.704206	1.734526E-1	1.319332E-2	6.282096E-3	-1.013123E+1	2.477858E-2	1.437409E-2	6.697081E-2	2.655919E-2
10/19/2017  17:43:32.705206	1.281764E+0	1.828100E-2	1.900811E-2	-1.015415E+1	2.477858E-2	1.946206E-2	7.714242E-2	2.147136E-2
10/19/2017  17:43:32.706206	-2.688550E-1	8.105642E-3	3.173413E-2	-1.013378E+1	1.712873E-2	2.200605E-2	7.968532E-2	3.164702E-2
10/19/2017  17:43:32.707206	1.531166E-1	8.105642E-3	1.137250E-2	-1.012869E+1	2.987847E-2	1.437409E-2	6.188501E-2	3.164702E-2
10/19/2017  17:43:32.708206	5.242483E-1	2.591253E-2	8.827299E-3	-1.014142E+1	1.967868E-2	1.946206E-2	7.459952E-2	2.910311E-2
10/19/2017  17:43:32.709206	4.301944E-1	5.561801E-3	2.664372E-2	-1.013887E+1	1.202884E-2	1.946206E-2	7.714242E-2	3.927877E-2
10/19/2017  17:43:32.710206	4.352784E-1	5.561801E-3	2.155331E-2	-1.012614E+1	3.242842E-2	9.286120E-3	6.697081E-2	3.419094E-2
10/19/2017  17:43:32.711206	6.996461E-1	2.591253E-2	1.137250E-2	-1.013887E+1	2.732853E-2	2.709402E-2	7.205661E-2	2.401527E-2
10/19/2017  17:43:32.712206	1.709106E-1	1.573716E-2	2.409852E-2	-1.013378E+1	2.222863E-2	3.218199E-2	7.968532E-2	3.164702E-2
10/19/2017  17:43:32.713206	-8.026745E-1	-2.069720E-3	1.900811E-2	-1.013123E+1	1.967868E-2	1.437409E-2	7.205661E-2	3.164702E-2
10/19/2017  17:43:32.714206	-7.925065E-1	1.828100E-2	1.900811E-2	-1.014142E+1	2.222863E-2	1.437409E-2	6.697081E-2	2.655919E-2
								
10/19/2017  17:43:32.715206	-5.586427E-1	2.591253E-2	1.900811E-2	-1.013632E+1	3.242842E-2	1.946206E-2	7.205661E-2	3.164702E-2
10/19/2017  17:43:32.716206	6.640582E-1	8.105642E-3	1.900811E-2	-1.012869E+1	1.967868E-2	2.200605E-2	7.968532E-2	4.182269E-2
10/19/2017  17:43:32.717206	8.928380E-1	5.561801E-3	1.137250E-2	-1.012359E+1	2.732853E-2	1.183011E-2	6.442791E-2	3.419094E-2
10/19/2017  17:43:32.718206	3.742704E-1	1.828100E-2	8.827299E-3	-1.014651E+1	2.987847E-2	2.709402E-2	6.442791E-2	2.147136E-2
10/19/2017  17:43:32.719206	3.717284E-1	1.828100E-2	2.409852E-2	-1.014142E+1	2.222863E-2	2.709402E-2	8.222822E-2	3.673486E-2
10/19/2017  17:43:32.720206	2.217506E-1	8.105642E-3	2.664372E-2	-1.012105E+1	2.477858E-2	1.946206E-2	7.714242E-2	3.419094E-2
10/19/2017  17:43:32.721206	3.768124E-1	1.319332E-2	8.827299E-3	-1.014142E+1	3.242842E-2	1.946206E-2	7.205661E-2	1.892744E-2
10/19/2017  17:43:32.722206	4.352784E-1	1.828100E-2	2.155331E-2	-1.014651E+1	1.457878E-2	2.709402E-2	8.477112E-2	2.147136E-2
10/19/2017  17:43:32.723206	-4.515918E-2	8.105642E-3	2.664372E-2	-1.012614E+1	1.457878E-2	1.437409E-2	7.968532E-2	5.199836E-2
10/19/2017  17:43:32.724206	-9.933243E-1	1.064948E-2	1.391770E-2	-1.013378E+1	2.477858E-2	6.742135E-3	6.697081E-2	2.910311E-2
10/19/2017  17:43:32.725206	-1.926237E+0	2.591253E-2	1.646291E-2	-1.014651E+1	1.967868E-2	2.455003E-2	7.459952E-2	2.401527E-2
10/19/2017  17:43:32.726206	-3.857869E-1	1.064948E-2	2.155331E-2	-1.014142E+1	1.712873E-2	2.200605E-2	7.205661E-2	3.164702E-2
10/19/2017  17:43:32.727206	1.126702E+0	-4.613560E-3	1.137250E-2	-1.013378E+1	1.712873E-2	9.286120E-3	7.459952E-2	3.673486E-2
10/19/2017  17:43:32.728206	1.149580E+0	1.319332E-2	1.391770E-2	-1.013632E+1	2.987847E-2	2.455003E-2	6.442791E-2	2.655919E-2
10/19/2017  17:43:32.729206	4.378204E-1	2.082484E-2	3.173413E-2	-1.014142E+1	1.967868E-2	3.218199E-2	8.222822E-2	2.655919E-2
10/19/2017  17:43:32.730206	-3.756189E-1	5.561801E-3	2.664372E-2	-1.013123E+1	1.712873E-2	1.183011E-2	7.968532E-2	3.673486E-2
10/19/2017  17:43:32.731206	-6.476126E-1	1.064948E-2	6.282096E-3	-1.013632E+1	2.477858E-2	6.742135E-3	7.714242E-2	2.910311E-2
10/19/2017  17:43:32.732206	-9.091514E-2	2.845637E-2	1.900811E-2	-1.014905E+1	2.477858E-2	2.963800E-2	7.714242E-2	2.401527E-2
10/19/2017  17:43:32.733206	4.657824E-1	1.064948E-2	2.664372E-2	-1.013632E+1	1.712873E-2	3.981394E-2	7.968532E-2	3.164702E-2
10/19/2017  17:43:32.734206	1.251547E-1	2.336868E-2	1.137250E-2	-1.012359E+1	2.477858E-2	1.437409E-2	7.968532E-2	3.164702E-2
10/19/2017  17:43:32.735206	8.222774E-3	1.064948E-2	1.646291E-2	-1.013632E+1	2.222863E-2	1.946206E-2	7.459952E-2	3.164702E-2
10/19/2017  17:43:32.736206	8.826700E-1	4.741205E-4	1.137250E-2	-1.015160E+1	1.457878E-2	1.946206E-2	7.205661E-2	4.182269E-2
10/19/2017  17:43:32.737206	3.208885E-1	1.064948E-2	1.646291E-2	-1.013378E+1	2.222863E-2	1.946206E-2	7.714242E-2	3.673486E-2
10/19/2017  17:43:32.738206	4.352784E-1	1.064948E-2	1.137250E-2	-1.014142E+1	4.007827E-2	1.946206E-2	7.205661E-2	2.147136E-2
10/19/2017  17:43:32.739206	6.411802E-1	1.573716E-2	1.900811E-2	-1.014905E+1	1.457878E-2	2.709402E-2	7.968532E-2	2.401527E-2
10/19/2017  17:43:32.740206	1.149867E-1	1.064948E-2	2.664372E-2	-1.013123E+1	-7.209035E-4	1.946206E-2	7.968532E-2	3.927877E-2
10/19/2017  17:43:32.741206	1.073607E-1	5.561801E-3	1.137250E-2	-1.014651E+1	2.732853E-2	1.437409E-2	6.951371E-2	3.164702E-2
10/19/2017  17:43:32.742206	9.690979E-1	2.082484E-2	1.900811E-2	-1.014905E+1	2.477858E-2	2.709402E-2	7.459952E-2	2.910311E-2
10/19/2017  17:43:32.743206	7.809901E-1	1.064948E-2	3.427933E-2	-1.012105E+1	1.712873E-2	2.455003E-2	8.222822E-2	3.164702E-2
10/19/2017  17:43:32.744206	-4.010389E-1	8.105642E-3	8.827299E-3	-1.013378E+1	2.987847E-2	1.691808E-2	7.205661E-2	2.147136E-2
10/19/2017  17:43:32.745206	-7.696285E-1	2.082484E-2	1.137250E-2	-1.016178E+1	2.477858E-2	1.946206E-2	7.205661E-2	2.655919E-2
10/19/2017  17:43:32.746206	5.652073E-2	1.064948E-2	3.173413E-2	-1.014142E+1	1.967868E-2	2.200605E-2	7.968532E-2	3.164702E-2
10/19/2017  17:43:32.747206	-1.900530E-1	8.105642E-3	1.900811E-2	-1.014142E+1	1.967868E-2	2.709402E-2	8.222822E-2	3.164702E-2
								
10/19/2017  17:43:32.748206	-1.061671E-1	2.082484E-2	8.827299E-3	-1.013887E+1	1.712873E-2	1.691808E-2	7.459952E-2	2.401527E-2
10/19/2017  17:43:32.749206	9.465070E-2	1.319332E-2	2.664372E-2	-1.014142E+1	1.712873E-2	2.200605E-2	7.205661E-2	3.164702E-2
10/19/2017  17:43:32.750206	-4.137488E-1	1.064948E-2	1.391770E-2	-1.013887E+1	1.202884E-2	1.946206E-2	7.459952E-2	3.673486E-2
10/19/2017  17:43:32.751206	-6.959106E-1	2.336868E-2	1.391770E-2	-1.013632E+1	3.242842E-2	2.963800E-2	6.951371E-2	2.401527E-2
10/19/2017  17:43:32.752206	-6.959106E-1	2.082484E-2	2.155331E-2	-1.014396E+1	1.457878E-2	4.744590E-2	7.968532E-2	2.910311E-2
10/19/2017  17:43:32.753206	3.310565E-1	4.741205E-4	1.646291E-2	-1.013123E+1	1.712873E-2	1.691808E-2	7.205661E-2	3.419094E-2
10/19/2017  17:43:32.754206	3.234305E-1	1.064948E-2	1.900811E-2	-1.013632E+1	2.732853E-2	9.286120E-3	6.951371E-2	2.401527E-2
10/19/2017  17:43:32.755206	1.022767E-1	1.828100E-2	1.646291E-2	-1.014905E+1	2.477858E-2	2.200605E-2	7.714242E-2	2.910311E-2
10/19/2017  17:43:32.756206	6.055922E-1	1.064948E-2	1.900811E-2	-1.014905E+1	2.477858E-2	2.455003E-2	7.205661E-2	3.927877E-2
10/19/2017  17:43:32.757206	1.538505E+0	-4.613560E-3	1.137250E-2	-1.013378E+1	1.712873E-2	1.946206E-2	6.442791E-2	2.910311E-2
10/19/2017  17:43:32.758206	6.513482E-1	1.828100E-2	2.155331E-2	-1.014905E+1	2.222863E-2	1.946206E-2	7.205661E-2	2.401527E-2
10/19/2017  17:43:32.759206	-4.417108E-1	8.105642E-3	2.664372E-2	-1.013887E+1	-3.270852E-3	1.437409E-2	7.205661E-2	4.182269E-2
10/19/2017  17:43:32.760206	-8.382625E-1	1.064948E-2	1.646291E-2	-1.013632E+1	2.732853E-2	1.691808E-2	7.205661E-2	2.910311E-2
10/19/2017  17:43:32.761206	-1.079752E+0	1.828100E-2	1.900811E-2	-1.014396E+1	1.967868E-2	2.200605E-2	7.205661E-2	3.927877E-2
10/19/2017  17:43:32.762206	-3.069849E-1	1.064948E-2	2.409852E-2	-1.014142E+1	9.478889E-3	1.946206E-2	7.714242E-2	3.673486E-2
10/19/2017  17:43:32.763206	3.872675E-2	5.561801E-3	1.391770E-2	-1.012869E+1	2.987847E-2	1.437409E-2	6.951371E-2	2.655919E-2
10/19/2017  17:43:32.764206	-3.578249E-1	1.573716E-2	2.155331E-2	-1.012614E+1	2.477858E-2	2.963800E-2	7.714242E-2	2.401527E-2
10/19/2017  17:43:32.765206	-4.366268E-1	1.573716E-2	2.155331E-2	-1.013378E+1	1.712873E-2	1.946206E-2	7.968532E-2	3.927877E-2
10/19/2017  17:43:32.766206	-1.010831E-1	1.064948E-2	1.900811E-2	-1.014905E+1	1.967868E-2	1.946206E-2	7.968532E-2	3.164702E-2
10/19/2017  17:43:32.767206	7.177272E-2	8.105642E-3	1.137250E-2	-1.014651E+1	1.712873E-2	2.709402E-2	7.459952E-2	3.164702E-2
10/19/2017  17:43:32.768206	-7.820515E-2	1.319332E-2	2.409852E-2	-1.012869E+1	1.712873E-2	1.946206E-2	7.459952E-2	3.673486E-2
10/19/2017  17:43:32.769206	-7.029213E-3	8.105642E-3	2.409852E-2	-1.013632E+1	3.497837E-2	1.946206E-2	7.459952E-2	3.164702E-2
10/19/2017  17:43:32.770206	1.505746E-1	1.573716E-2	1.391770E-2	-1.014651E+1	2.222863E-2	2.963800E-2	7.459952E-2	1.638352E-2
10/19/2017  17:43:32.771206	1.632846E-1	1.828100E-2	1.646291E-2	-1.013887E+1	1.202884E-2	9.286120E-3	8.222822E-2	3.673486E-2
10/19/2017  17:43:32.772206	4.784923E-1	1.573716E-2	1.900811E-2	-1.014142E+1	2.477858E-2	1.691808E-2	7.459952E-2	3.164702E-2
