Parameters: 	Upper Cutoff:  500	Lower Cutoff: 10	Sample Rate (Hz): 1000	Frames Per Second30	Display Window Size (S)400	MVC Window Size (s): 400	Seconds To Acquire MVC: 3	Display Channel: 0
waveform	[0]	[1]	[2]	[3]	[4]	[5]	[6]	[7]
t0	10/19/2017  17:43:20.282807	10/19/2017  17:43:20.282807	10/19/2017  17:43:20.282807	10/19/2017  17:43:20.282807	10/19/2017  17:43:20.282807	10/19/2017  17:43:20.282807	10/19/2017  17:43:20.282807	10/19/2017  17:43:20.282807
delta t	0.001000	0.001000	0.001000	0.001000	0.001000	0.001000	0.001000	0.001000

time	Y[0]	Y[1]	Y[2]	Y[3]	Y[4]	Y[5]	Y[6]	Y[7]
10/19/2017  17:43:20.274206	4.126874E-2	1.573716E-2	1.900811E-2	-1.015160E+1	1.712873E-2	1.946206E-2	7.714242E-2	3.164702E-2
10/19/2017  17:43:20.275206	1.861626E-1	1.573716E-2	2.155331E-2	-1.013632E+1	2.477858E-2	1.946206E-2	7.714242E-2	3.164702E-2
10/19/2017  17:43:20.276206	2.547966E-1	1.573716E-2	1.900811E-2	-1.013887E+1	2.222863E-2	3.218199E-2	6.697081E-2	2.401527E-2
10/19/2017  17:43:20.277206	1.454906E-1	5.561801E-3	1.137250E-2	-1.013632E+1	1.967868E-2	2.455003E-2	7.968532E-2	3.164702E-2
10/19/2017  17:43:20.278206	9.465070E-2	1.573716E-2	2.664372E-2	-1.013123E+1	1.712873E-2	1.946206E-2	8.985693E-2	3.927877E-2
10/19/2017  17:43:20.279206	-6.549516E-2	1.319332E-2	1.900811E-2	-1.013887E+1	3.497837E-2	2.709402E-2	6.697081E-2	3.164702E-2
10/19/2017  17:43:20.280206	-3.222369E-1	1.064948E-2	1.646291E-2	-1.014142E+1	1.712873E-2	2.709402E-2	7.205661E-2	3.164702E-2
10/19/2017  17:43:20.281206	-8.509724E-1	1.064948E-2	1.900811E-2	-1.014142E+1	1.202884E-2	9.286120E-3	8.222822E-2	2.910311E-2
10/19/2017  17:43:20.282206	-1.534770E+0	2.082484E-2	1.900811E-2	-1.013632E+1	3.242842E-2	1.437409E-2	7.205661E-2	3.927877E-2
10/19/2017  17:43:20.283206	-9.551944E-1	1.064948E-2	1.137250E-2	-1.014142E+1	2.987847E-2	2.963800E-2	6.951371E-2	2.401527E-2
10/19/2017  17:43:20.284206	1.228382E+0	3.608789E-2	1.900811E-2	-1.013632E+1	2.477858E-2	2.709402E-2	7.459952E-2	2.401527E-2
10/19/2017  17:43:20.285206	3.056365E-1	1.319332E-2	2.155331E-2	-1.014396E+1	1.457878E-2	9.286120E-3	8.222822E-2	3.164702E-2
10/19/2017  17:43:20.286206	-1.237356E+0	8.105642E-3	1.900811E-2	-1.014142E+1	2.477858E-2	1.183011E-2	7.205661E-2	4.182269E-2
10/19/2017  17:43:20.287206	-4.391688E-1	1.064948E-2	1.137250E-2	-1.013887E+1	2.732853E-2	2.455003E-2	6.951371E-2	3.164702E-2
10/19/2017  17:43:20.288206	2.616312E+0	1.828100E-2	1.646291E-2	-1.014142E+1	3.752832E-2	2.455003E-2	7.714242E-2	2.655919E-2
10/19/2017  17:43:20.289206	2.082493E+0	1.319332E-2	2.409852E-2	-1.014142E+1	1.457878E-2	2.200605E-2	7.714242E-2	3.164702E-2
10/19/2017  17:43:20.290206	4.581564E-1	3.017961E-3	1.900811E-2	-1.012869E+1	9.478889E-3	1.691808E-2	6.442791E-2	2.910311E-2
10/19/2017  17:43:20.291206	-1.244982E+0	1.573716E-2	8.827299E-3	-1.014905E+1	2.732853E-2	1.946206E-2	7.205661E-2	3.164702E-2
10/19/2017  17:43:20.292206	-5.916887E-1	2.591253E-2	2.155331E-2	-1.014651E+1	2.477858E-2	2.963800E-2	7.205661E-2	3.927877E-2
10/19/2017  17:43:20.293206	6.666002E-1	2.082484E-2	2.155331E-2	-1.012614E+1	1.457878E-2	3.218199E-2	7.714242E-2	3.164702E-2
10/19/2017  17:43:20.294206	3.803425E+0	3.017961E-3	1.646291E-2	-1.012869E+1	1.457878E-2	1.437409E-2	7.968532E-2	3.673486E-2
10/19/2017  17:43:20.295206	1.879133E+0	8.105642E-3	1.137250E-2	-1.015160E+1	2.477858E-2	9.286120E-3	7.459952E-2	3.164702E-2
10/19/2017  17:43:20.296206	-1.519231E-1	2.591253E-2	2.155331E-2	-1.014142E+1	2.732853E-2	2.455003E-2	6.442791E-2	2.401527E-2
10/19/2017  17:43:20.297206	-1.255150E+0	2.082484E-2	2.664372E-2	-1.014142E+1	1.457878E-2	2.963800E-2	7.459952E-2	3.164702E-2
10/19/2017  17:43:20.298206	-1.931321E+0	-2.069720E-3	2.155331E-2	-1.014142E+1	1.712873E-2	9.286120E-3	7.714242E-2	3.419094E-2
10/19/2017  17:43:20.299206	-2.094009E+0	4.741205E-4	1.391770E-2	-1.013887E+1	2.987847E-2	1.691808E-2	6.697081E-2	3.419094E-2
10/19/2017  17:43:20.300206	-1.842352E+0	2.082484E-2	6.282096E-3	-1.014905E+1	2.477858E-2	3.472597E-2	7.205661E-2	2.910311E-2
10/19/2017  17:43:20.301206	-5.027188E-1	2.845637E-2	1.900811E-2	-1.014142E+1	1.457878E-2	2.455003E-2	7.714242E-2	2.401527E-2
10/19/2017  17:43:20.302206	6.920202E-1	5.561801E-3	2.409852E-2	-1.014651E+1	1.712873E-2	1.183011E-2	8.222822E-2	3.419094E-2
10/19/2017  17:43:20.303206	1.281764E+0	5.561801E-3	1.900811E-2	-1.013632E+1	3.242842E-2	1.946206E-2	6.951371E-2	3.927877E-2
10/19/2017  17:43:20.304206	1.116534E+0	1.828100E-2	1.137250E-2	-1.013887E+1	2.732853E-2	3.726996E-2	6.697081E-2	2.147136E-2
10/19/2017  17:43:20.305206	-2.734593E+0	3.017961E-3	1.900811E-2	-1.015160E+1	2.477858E-2	2.455003E-2	7.459952E-2	2.910311E-2
10/19/2017  17:43:20.306206	-2.973541E+0	1.064948E-2	2.664372E-2	-1.014651E+1	1.712873E-2	2.709402E-2	8.222822E-2	4.182269E-2
								
10/19/2017  17:43:20.307206	-3.753934E+0	4.741205E-4	2.155331E-2	-1.014651E+1	9.478889E-3	2.455003E-2	6.697081E-2	3.419094E-2
10/19/2017  17:43:20.308206	-4.064058E+0	1.573716E-2	2.155331E-2	-1.015415E+1	1.967868E-2	2.200605E-2	7.205661E-2	2.147136E-2
10/19/2017  17:43:20.309206	1.853713E+0	2.082484E-2	2.155331E-2	-1.014651E+1	2.477858E-2	2.709402E-2	8.477112E-2	2.910311E-2
10/19/2017  17:43:20.310206	4.987996E+0	1.064948E-2	2.664372E-2	-1.013632E+1	1.457878E-2	1.437409E-2	7.968532E-2	3.164702E-2
10/19/2017  17:43:20.311206	5.013416E+0	5.561801E-3	2.155331E-2	-1.012105E+1	3.497837E-2	1.691808E-2	6.442791E-2	3.419094E-2
10/19/2017  17:43:20.312206	4.606697E+0	1.573716E-2	3.736893E-3	-1.013123E+1	2.732853E-2	1.691808E-2	7.459952E-2	2.401527E-2
10/19/2017  17:43:20.313206	2.293766E-1	1.828100E-2	2.664372E-2	-1.013887E+1	2.477858E-2	1.946206E-2	7.205661E-2	3.164702E-2
10/19/2017  17:43:20.314206	-6.018567E-1	1.064948E-2	2.664372E-2	-1.012105E+1	1.202884E-2	2.709402E-2	8.477112E-2	3.673486E-2
10/19/2017  17:43:20.315206	-3.405680E+0	8.105642E-3	1.391770E-2	-1.013887E+1	1.712873E-2	1.183011E-2	7.459952E-2	3.673486E-2
10/19/2017  17:43:20.316206	-1.727962E+0	1.319332E-2	1.137250E-2	-1.015924E+1	2.732853E-2	1.183011E-2	6.188501E-2	2.910311E-2
10/19/2017  17:43:20.317206	-3.273209E-1	1.828100E-2	1.900811E-2	-1.014651E+1	2.477858E-2	2.963800E-2	7.205661E-2	2.401527E-2
10/19/2017  17:43:20.318206	1.802873E+0	1.319332E-2	1.900811E-2	-1.013632E+1	1.457878E-2	1.946206E-2	8.985693E-2	3.673486E-2
10/19/2017  17:43:20.319206	3.742704E-1	1.064948E-2	8.827299E-3	-1.013123E+1	2.477858E-2	9.286120E-3	7.459952E-2	3.927877E-2
10/19/2017  17:43:20.320206	4.886603E-1	1.064948E-2	1.137250E-2	-1.013887E+1	2.477858E-2	2.200605E-2	5.679920E-2	3.164702E-2
10/19/2017  17:43:20.321206	2.093276E-2	2.336868E-2	1.646291E-2	-1.014651E+1	1.457878E-2	2.963800E-2	7.459952E-2	2.147136E-2
10/19/2017  17:43:20.322206	-3.756189E-1	2.336868E-2	2.155331E-2	-1.013887E+1	2.222863E-2	2.455003E-2	8.222822E-2	3.164702E-2
10/19/2017  17:43:20.323206	-5.786917E-2	8.105642E-3	1.900811E-2	-1.013378E+1	2.987847E-2	2.963800E-2	6.697081E-2	4.182269E-2
10/19/2017  17:43:20.324206	6.160473E-2	1.064948E-2	1.137250E-2	-1.015160E+1	2.987847E-2	2.455003E-2	6.951371E-2	2.910311E-2
10/19/2017  17:43:20.325206	-8.636824E-1	1.828100E-2	2.155331E-2	-1.014905E+1	1.457878E-2	2.455003E-2	8.222822E-2	2.655919E-2
10/19/2017  17:43:20.326206	-1.669496E+0	1.319332E-2	2.155331E-2	-1.014905E+1	2.477858E-2	1.946206E-2	7.459952E-2	4.182269E-2
10/19/2017  17:43:20.327206	-2.973541E+0	1.319332E-2	1.900811E-2	-1.014396E+1	2.222863E-2	1.946206E-2	7.714242E-2	3.927877E-2
10/19/2017  17:43:20.328206	-3.820026E+0	1.319332E-2	2.155331E-2	-1.014651E+1	1.202884E-2	2.455003E-2	6.951371E-2	2.147136E-2
10/19/2017  17:43:20.329206	-2.294827E+0	1.573716E-2	2.155331E-2	-1.014905E+1	1.457878E-2	2.200605E-2	8.222822E-2	3.673486E-2
10/19/2017  17:43:20.330206	-3.278580E+0	8.105642E-3	1.900811E-2	-1.013887E+1	2.477858E-2	1.437409E-2	6.951371E-2	4.182269E-2
10/19/2017  17:43:20.331206	-4.915627E+0	1.064948E-2	1.646291E-2	-1.013632E+1	2.477858E-2	2.455003E-2	6.951371E-2	2.910311E-2
10/19/2017  17:43:20.332206	-2.699005E+0	1.828100E-2	1.900811E-2	-1.014651E+1	2.222863E-2	2.455003E-2	7.968532E-2	3.419094E-2
10/19/2017  17:43:20.333206	-5.278517E-2	1.319332E-2	2.409852E-2	-1.013887E+1	1.202884E-2	1.691808E-2	7.968532E-2	3.419094E-2
10/19/2017  17:43:20.334206	3.788173E+0	1.319332E-2	1.900811E-2	-1.012869E+1	1.967868E-2	1.437409E-2	6.951371E-2	3.164702E-2
10/19/2017  17:43:20.335206	3.572104E+0	1.064948E-2	1.137250E-2	-1.012105E+1	2.987847E-2	1.946206E-2	7.205661E-2	2.910311E-2
10/19/2017  17:43:20.336206	1.818125E+0	2.336868E-2	1.646291E-2	-1.013632E+1	2.222863E-2	1.691808E-2	7.459952E-2	2.147136E-2
10/19/2017  17:43:20.337206	2.995070E+0	8.105642E-3	1.646291E-2	-1.013632E+1	2.477858E-2	2.709402E-2	6.951371E-2	3.419094E-2
10/19/2017  17:43:20.338206	2.720534E+0	5.561801E-3	1.900811E-2	-1.013632E+1	2.732853E-2	9.286120E-3	6.442791E-2	3.419094E-2
10/19/2017  17:43:20.339206	2.074867E+0	2.082484E-2	1.391770E-2	-1.014142E+1	2.987847E-2	2.709402E-2	5.425630E-2	3.164702E-2
								
10/19/2017  17:43:20.340206	1.802873E+0	2.082484E-2	3.682453E-2	-1.014142E+1	2.222863E-2	2.455003E-2	7.968532E-2	3.164702E-2
10/19/2017  17:43:20.341206	1.228382E+0	5.561801E-3	1.900811E-2	-1.013632E+1	2.222863E-2	1.691808E-2	7.459952E-2	3.419094E-2
10/19/2017  17:43:20.342206	1.818125E+0	1.064948E-2	1.137250E-2	-1.014142E+1	2.222863E-2	1.183011E-2	6.951371E-2	2.147136E-2
10/19/2017  17:43:20.343206	1.396154E+0	2.336868E-2	1.646291E-2	-1.014396E+1	2.222863E-2	2.709402E-2	7.459952E-2	2.401527E-2
10/19/2017  17:43:20.344206	8.699600E-1	1.064948E-2	2.664372E-2	-1.013887E+1	1.712873E-2	2.963800E-2	7.714242E-2	3.673486E-2
10/19/2017  17:43:20.345206	6.615162E-1	5.561801E-3	1.900811E-2	-1.012614E+1	2.477858E-2	1.437409E-2	7.968532E-2	3.419094E-2
10/19/2017  17:43:20.346206	7.657381E-1	1.319332E-2	1.137250E-2	-1.014396E+1	2.987847E-2	1.691808E-2	7.205661E-2	3.164702E-2
10/19/2017  17:43:20.347206	9.767239E-1	5.561801E-3	1.646291E-2	-1.015415E+1	1.457878E-2	2.963800E-2	6.951371E-2	3.419094E-2
10/19/2017  17:43:20.348206	9.843499E-1	1.319332E-2	2.155331E-2	-1.013632E+1	1.457878E-2	2.200605E-2	7.968532E-2	3.164702E-2
10/19/2017  17:43:20.349206	8.775860E-1	5.561801E-3	1.391770E-2	-1.012869E+1	3.497837E-2	1.691808E-2	6.697081E-2	4.182269E-2
10/19/2017  17:43:20.350206	6.259282E-1	1.828100E-2	1.900811E-2	-1.014905E+1	2.477858E-2	1.946206E-2	7.205661E-2	2.655919E-2
10/19/2017  17:43:20.351206	2.141246E-1	1.319332E-2	1.646291E-2	-1.014142E+1	1.967868E-2	2.455003E-2	7.714242E-2	4.182269E-2
10/19/2017  17:43:20.352206	1.582006E-1	1.573716E-2	1.900811E-2	-1.012614E+1	1.967868E-2	1.691808E-2	7.714242E-2	3.419094E-2
10/19/2017  17:43:20.353206	4.381074E-2	1.064948E-2	1.137250E-2	-1.013887E+1	2.477858E-2	1.691808E-2	6.697081E-2	3.419094E-2
10/19/2017  17:43:20.354206	-1.417551E-1	1.573716E-2	2.664372E-2	-1.014905E+1	2.222863E-2	2.963800E-2	6.951371E-2	2.655919E-2
10/19/2017  17:43:20.355206	-4.086648E-1	1.064948E-2	2.155331E-2	-1.014142E+1	1.202884E-2	1.946206E-2	7.968532E-2	1.638352E-2
10/19/2017  17:43:20.356206	1.912466E-1	1.064948E-2	1.646291E-2	-1.015415E+1	1.967868E-2	6.742135E-3	7.459952E-2	3.673486E-2
10/19/2017  17:43:20.357206	-1.181432E+0	1.064948E-2	1.900811E-2	-1.013887E+1	2.222863E-2	2.455003E-2	6.697081E-2	3.164702E-2
10/19/2017  17:43:20.358206	-2.970999E+0	2.082484E-2	1.900811E-2	-1.014396E+1	1.457878E-2	2.963800E-2	7.459952E-2	2.910311E-2
10/19/2017  17:43:20.359206	-3.446352E+0	-2.069720E-3	3.173413E-2	-1.014651E+1	1.457878E-2	1.437409E-2	7.968532E-2	3.673486E-2
10/19/2017  17:43:20.360206	-2.617661E+0	5.561801E-3	1.391770E-2	-1.014142E+1	2.987847E-2	1.437409E-2	7.205661E-2	3.164702E-2
10/19/2017  17:43:20.361206	-1.656786E+0	1.828100E-2	1.900811E-2	-1.014651E+1	2.477858E-2	2.455003E-2	7.459952E-2	2.401527E-2
10/19/2017  17:43:20.362206	-5.738947E-1	1.064948E-2	1.646291E-2	-1.013378E+1	9.478889E-3	2.200605E-2	7.714242E-2	3.164702E-2
10/19/2017  17:43:20.363206	1.902011E+0	5.561801E-3	1.900811E-2	-1.013378E+1	2.987847E-2	1.654165E-3	7.459952E-2	2.401527E-2
10/19/2017  17:43:20.364206	3.711913E+0	4.741205E-4	1.391770E-2	-1.013378E+1	2.477858E-2	2.963800E-2	6.697081E-2	2.910311E-2
10/19/2017  17:43:20.365206	4.637201E+0	1.573716E-2	2.664372E-2	-1.013632E+1	2.222863E-2	1.183011E-2	7.968532E-2	1.638352E-2
10/19/2017  17:43:20.366206	2.621396E+0	1.828100E-2	2.664372E-2	-1.013887E+1	1.967868E-2	1.946206E-2	8.222822E-2	3.673486E-2
10/19/2017  17:43:20.367206	6.208442E-1	5.561801E-3	1.137250E-2	-1.012614E+1	2.732853E-2	1.691808E-2	6.697081E-2	2.910311E-2
10/19/2017  17:43:20.368206	-9.551944E-1	8.105642E-3	1.137250E-2	-1.015924E+1	2.477858E-2	2.963800E-2	6.951371E-2	2.147136E-2
10/19/2017  17:43:20.369206	-6.295316E-2	1.828100E-2	2.664372E-2	-1.014651E+1	1.457878E-2	2.709402E-2	7.459952E-2	3.164702E-2
10/19/2017  17:43:20.370206	-1.265031E-1	1.064948E-2	1.646291E-2	-1.013378E+1	3.497837E-2	2.455003E-2	7.459952E-2	3.927877E-2
10/19/2017  17:43:20.371206	-4.823828E-1	1.064948E-2	1.391770E-2	-1.013887E+1	2.987847E-2	2.200605E-2	6.697081E-2	2.910311E-2
10/19/2017  17:43:20.372206	1.302387E-1	1.573716E-2	1.391770E-2	-1.014396E+1	1.712873E-2	2.963800E-2	7.205661E-2	1.638352E-2
								
10/19/2017  17:43:20.373206	1.175287E-1	1.573716E-2	1.900811E-2	-1.014905E+1	1.712873E-2	2.200605E-2	8.222822E-2	3.673486E-2
10/19/2017  17:43:20.374206	1.353227E-1	8.105642E-3	2.155331E-2	-1.012869E+1	2.222863E-2	1.691808E-2	7.459952E-2	3.419094E-2
10/19/2017  17:43:20.375206	1.177542E+0	1.573716E-2	1.391770E-2	-1.012359E+1	2.987847E-2	2.963800E-2	7.205661E-2	2.401527E-2
10/19/2017  17:43:20.376206	2.621396E+0	2.082484E-2	1.900811E-2	-1.013632E+1	2.477858E-2	2.963800E-2	7.205661E-2	2.147136E-2
10/19/2017  17:43:20.377206	-3.832449E-1	1.064948E-2	2.409852E-2	-1.015669E+1	1.712873E-2	1.691808E-2	7.205661E-2	2.910311E-2
10/19/2017  17:43:20.378206	-3.494650E+0	1.828100E-2	2.918892E-2	-1.013887E+1	2.732853E-2	1.946206E-2	7.459952E-2	3.419094E-2
10/19/2017  17:43:20.379206	-4.239455E+0	1.828100E-2	1.137250E-2	-1.014651E+1	2.987847E-2	3.981394E-2	8.222822E-2	2.401527E-2
10/19/2017  17:43:20.380206	-4.280127E+0	2.591253E-2	1.391770E-2	-1.016178E+1	1.457878E-2	3.218199E-2	7.714242E-2	2.910311E-2
10/19/2017  17:43:20.381206	1.594429E+0	8.105642E-3	2.155331E-2	-1.013378E+1	1.457878E-2	1.691808E-2	7.968532E-2	3.927877E-2
10/19/2017  17:43:20.382206	5.013416E+0	5.561801E-3	6.282096E-3	-1.011850E+1	2.222863E-2	4.198150E-3	6.697081E-2	2.910311E-2
10/19/2017  17:43:20.383206	4.998164E+0	5.561801E-3	1.646291E-2	-1.012869E+1	2.987847E-2	2.709402E-2	6.697081E-2	2.910311E-2
10/19/2017  17:43:20.384206	2.346861E+0	1.319332E-2	2.409852E-2	-1.013632E+1	1.967868E-2	3.726996E-2	7.714242E-2	3.164702E-2
10/19/2017  17:43:20.385206	-2.198231E+0	-4.613560E-3	1.646291E-2	-1.013378E+1	1.712873E-2	1.691808E-2	6.951371E-2	3.164702E-2
10/19/2017  17:43:20.386206	-2.193147E+0	1.319332E-2	8.827299E-3	-1.013887E+1	2.987847E-2	1.946206E-2	7.205661E-2	2.401527E-2
10/19/2017  17:43:20.387206	-1.880482E+0	3.100021E-2	1.646291E-2	-1.015669E+1	2.732853E-2	2.709402E-2	7.205661E-2	2.655919E-2
10/19/2017  17:43:20.388206	8.369140E-1	1.064948E-2	2.664372E-2	-1.013632E+1	1.457878E-2	2.709402E-2	7.968532E-2	3.164702E-2
10/19/2017  17:43:20.389206	4.985454E+0	3.017961E-3	1.900811E-2	-1.013378E+1	3.242842E-2	1.946206E-2	7.714242E-2	2.401527E-2
10/19/2017  17:43:20.390206	-6.145667E-1	1.064948E-2	1.391770E-2	-1.013887E+1	2.222863E-2	2.709402E-2	7.459952E-2	3.164702E-2
10/19/2017  17:43:20.391206	-4.946131E+0	1.573716E-2	1.646291E-2	-1.014651E+1	1.457878E-2	2.455003E-2	6.442791E-2	3.164702E-2
10/19/2017  17:43:20.392206	-4.938505E+0	1.319332E-2	1.646291E-2	-1.013887E+1	1.457878E-2	1.946206E-2	7.968532E-2	3.673486E-2
10/19/2017  17:43:20.393206	-4.102188E+0	1.064948E-2	8.827299E-3	-1.014142E+1	2.987847E-2	1.691808E-2	7.968532E-2	3.164702E-2
10/19/2017  17:43:20.394206	4.683244E-1	2.082484E-2	1.391770E-2	-1.014905E+1	2.222863E-2	2.455003E-2	7.459952E-2	2.401527E-2
10/19/2017  17:43:20.395206	-7.340406E-1	8.105642E-3	2.918892E-2	-1.013632E+1	1.457878E-2	2.455003E-2	8.222822E-2	3.419094E-2
10/19/2017  17:43:20.396206	6.335542E-1	1.319332E-2	1.900811E-2	-1.015160E+1	1.967868E-2	1.691808E-2	7.968532E-2	3.673486E-2
10/19/2017  17:43:20.397206	1.434283E+0	1.828100E-2	1.646291E-2	-1.014396E+1	3.242842E-2	1.946206E-2	7.205661E-2	2.910311E-2
10/19/2017  17:43:20.398206	1.220756E+0	1.573716E-2	1.646291E-2	-1.014651E+1	2.222863E-2	3.218199E-2	6.951371E-2	2.147136E-2
10/19/2017  17:43:20.399206	3.463085E-1	8.105642E-3	1.137250E-2	-1.013887E+1	1.457878E-2	1.946206E-2	7.714242E-2	3.164702E-2
10/19/2017  17:43:20.400206	6.920202E-1	5.561801E-3	1.900811E-2	-1.012869E+1	1.967868E-2	1.691808E-2	6.442791E-2	3.164702E-2
10/19/2017  17:43:20.401206	9.945179E-1	1.319332E-2	1.646291E-2	-1.013632E+1	2.477858E-2	2.455003E-2	7.714242E-2	3.419094E-2
10/19/2017  17:43:20.402206	-1.010831E-1	8.105642E-3	1.900811E-2	-1.013887E+1	2.222863E-2	2.709402E-2	7.459952E-2	3.164702E-2
10/19/2017  17:43:20.403206	6.513482E-1	1.064948E-2	1.391770E-2	-1.013887E+1	1.712873E-2	1.183011E-2	7.205661E-2	3.164702E-2
10/19/2017  17:43:20.404206	1.078404E+0	1.828100E-2	1.137250E-2	-1.014651E+1	3.242842E-2	1.946206E-2	6.697081E-2	3.164702E-2
10/19/2017  17:43:20.405206	1.891843E+0	1.828100E-2	1.900811E-2	-1.013378E+1	2.477858E-2	4.998988E-2	7.205661E-2	2.655919E-2
								
10/19/2017  17:43:20.406206	2.972192E+0	2.336868E-2	2.409852E-2	-1.012869E+1	1.712873E-2	1.946206E-2	8.222822E-2	3.164702E-2
10/19/2017  17:43:20.407206	2.247723E+0	8.105642E-3	1.646291E-2	-1.013123E+1	2.222863E-2	1.437409E-2	6.951371E-2	4.182269E-2
10/19/2017  17:43:20.408206	7.250661E-1	-2.069720E-3	1.391770E-2	-1.015160E+1	1.967868E-2	2.200605E-2	6.188501E-2	2.910311E-2
10/19/2017  17:43:20.409206	-1.697458E+0	2.082484E-2	2.155331E-2	-1.014905E+1	1.967868E-2	2.709402E-2	7.459952E-2	2.655919E-2
10/19/2017  17:43:20.410206	-9.882403E-1	1.319332E-2	2.409852E-2	-1.014651E+1	2.987847E-2	1.946206E-2	8.731403E-2	3.673486E-2
10/19/2017  17:43:20.411206	3.455172E+0	8.105642E-3	1.900811E-2	-1.013887E+1	1.967868E-2	1.437409E-2	7.205661E-2	3.927877E-2
10/19/2017  17:43:20.412206	3.285145E-1	8.105642E-3	1.391770E-2	-1.013123E+1	1.457878E-2	2.455003E-2	6.188501E-2	2.401527E-2
10/19/2017  17:43:20.413206	-3.192152E+0	2.082484E-2	1.137250E-2	-1.015415E+1	1.967868E-2	2.455003E-2	7.459952E-2	2.910311E-2
10/19/2017  17:43:20.414206	-3.540406E+0	1.319332E-2	2.664372E-2	-1.014142E+1	1.712873E-2	2.709402E-2	8.222822E-2	4.691052E-2
10/19/2017  17:43:20.415206	7.504861E-1	5.561801E-3	1.137250E-2	-1.011596E+1	2.477858E-2	1.946206E-2	8.222822E-2	3.673486E-2
10/19/2017  17:43:20.416206	2.438373E+0	1.319332E-2	8.827299E-3	-1.014142E+1	2.732853E-2	2.455003E-2	6.951371E-2	1.129569E-2
10/19/2017  17:43:20.417206	1.263970E+0	1.573716E-2	1.900811E-2	-1.013887E+1	2.222863E-2	1.946206E-2	6.951371E-2	2.401527E-2
10/19/2017  17:43:20.418206	1.027564E+0	8.105642E-3	2.918892E-2	-1.013378E+1	1.457878E-2	2.455003E-2	7.968532E-2	3.673486E-2
10/19/2017  17:43:20.419206	6.411802E-1	5.561801E-3	1.137250E-2	-1.012869E+1	2.987847E-2	1.691808E-2	7.968532E-2	3.673486E-2
10/19/2017  17:43:20.420206	1.378647E-1	1.319332E-2	1.391770E-2	-1.013887E+1	1.457878E-2	1.691808E-2	6.951371E-2	3.419094E-2
10/19/2017  17:43:20.421206	4.810343E-1	1.573716E-2	1.900811E-2	-1.014396E+1	2.222863E-2	2.455003E-2	6.188501E-2	2.910311E-2
10/19/2017  17:43:20.422206	-9.577364E-1	1.319332E-2	3.682453E-2	-1.014396E+1	2.477858E-2	1.946206E-2	7.205661E-2	2.655919E-2
10/19/2017  17:43:20.423206	-1.598320E+0	1.064948E-2	2.155331E-2	-1.014142E+1	2.222863E-2	1.437409E-2	7.205661E-2	3.164702E-2
10/19/2017  17:43:20.424206	-4.645888E-1	1.319332E-2	1.137250E-2	-1.013632E+1	3.242842E-2	3.218199E-2	6.951371E-2	3.419094E-2
10/19/2017  17:43:20.425206	-1.211321E-2	1.319332E-2	1.646291E-2	-1.015160E+1	1.457878E-2	2.709402E-2	6.951371E-2	2.401527E-2
10/19/2017  17:43:20.426206	-2.307250E-1	1.064948E-2	2.664372E-2	-1.013887E+1	1.457878E-2	1.946206E-2	7.714242E-2	2.401527E-2
10/19/2017  17:43:20.427206	-2.739390E-1	2.336868E-2	1.900811E-2	-1.013378E+1	2.732853E-2	1.437409E-2	7.459952E-2	3.927877E-2
10/19/2017  17:43:20.428206	-1.069584E+0	1.319332E-2	2.155331E-2	-1.014396E+1	2.222863E-2	1.946206E-2	7.205661E-2	3.927877E-2
10/19/2017  17:43:20.429206	-9.501104E-1	1.319332E-2	1.900811E-2	-1.013887E+1	1.457878E-2	1.691808E-2	7.205661E-2	2.655919E-2
10/19/2017  17:43:20.430206	-2.358090E-1	2.082484E-2	1.646291E-2	-1.015415E+1	2.222863E-2	2.709402E-2	7.459952E-2	3.164702E-2
10/19/2017  17:43:20.431206	-6.450706E-1	1.573716E-2	2.664372E-2	-1.014142E+1	1.457878E-2	1.183011E-2	7.205661E-2	4.182269E-2
10/19/2017  17:43:20.432206	1.258886E+0	8.105642E-3	2.664372E-2	-1.012359E+1	2.222863E-2	1.691808E-2	7.459952E-2	3.673486E-2
10/19/2017  17:43:20.433206	2.184173E+0	8.105642E-3	6.282096E-3	-1.013378E+1	2.477858E-2	1.946206E-2	6.697081E-2	2.910311E-2
10/19/2017  17:43:20.434206	-2.866490E-1	1.064948E-2	8.827299E-3	-1.012869E+1	2.732853E-2	2.200605E-2	6.442791E-2	2.910311E-2
10/19/2017  17:43:20.435206	-2.747303E+0	1.573716E-2	2.664372E-2	-1.014905E+1	1.712873E-2	1.946206E-2	7.459952E-2	4.182269E-2
10/19/2017  17:43:20.436206	-2.795601E+0	1.064948E-2	2.409852E-2	-1.013378E+1	1.967868E-2	2.455003E-2	7.459952E-2	3.673486E-2
10/19/2017  17:43:20.437206	1.091114E+0	1.319332E-2	1.646291E-2	-1.013632E+1	1.967868E-2	1.946206E-2	7.459952E-2	2.147136E-2
10/19/2017  17:43:20.438206	5.013416E+0	1.064948E-2	1.137250E-2	-1.013123E+1	2.477858E-2	2.709402E-2	6.697081E-2	3.673486E-2
								
10/19/2017  17:43:20.439206	5.010874E+0	4.741205E-4	1.137250E-2	-1.013123E+1	1.457878E-2	2.455003E-2	7.205661E-2	3.673486E-2
10/19/2017  17:43:20.440206	1.513085E+0	1.573716E-2	2.664372E-2	-1.013378E+1	1.712873E-2	1.946206E-2	8.731403E-2	3.164702E-2
10/19/2017  17:43:20.441206	-3.321794E+0	1.828100E-2	3.173413E-2	-1.013887E+1	2.477858E-2	2.455003E-2	7.205661E-2	3.927877E-2
10/19/2017  17:43:20.442206	-3.680216E+0	1.319332E-2	8.827299E-3	-1.013887E+1	2.477858E-2	1.691808E-2	6.697081E-2	3.673486E-2
10/19/2017  17:43:20.443206	-3.042174E+0	1.319332E-2	1.646291E-2	-1.014396E+1	2.222863E-2	1.437409E-2	7.205661E-2	2.655919E-2
10/19/2017  17:43:20.444206	-5.738947E-1	2.591253E-2	1.646291E-2	-1.014396E+1	2.222863E-2	2.709402E-2	7.968532E-2	3.164702E-2
10/19/2017  17:43:20.445206	8.775860E-1	1.828100E-2	2.409852E-2	-1.013887E+1	1.712873E-2	4.490191E-2	7.714242E-2	3.673486E-2
10/19/2017  17:43:20.446206	1.919805E+0	2.082484E-2	2.409852E-2	-1.012869E+1	1.457878E-2	2.200605E-2	8.222822E-2	2.655919E-2
10/19/2017  17:43:20.447206	5.000706E+0	1.573716E-2	1.391770E-2	-1.012359E+1	1.967868E-2	1.183011E-2	7.205661E-2	2.147136E-2
10/19/2017  17:43:20.448206	4.972744E+0	4.741205E-4	1.391770E-2	-1.014396E+1	2.477858E-2	2.455003E-2	7.459952E-2	3.164702E-2
10/19/2017  17:43:20.449206	-3.075220E+0	2.082484E-2	2.155331E-2	-1.014651E+1	1.712873E-2	3.218199E-2	7.459952E-2	2.401527E-2
10/19/2017  17:43:20.450206	-4.943589E+0	1.064948E-2	2.155331E-2	-1.013887E+1	3.242842E-2	1.691808E-2	8.222822E-2	3.673486E-2
10/19/2017  17:43:20.451206	-4.948673E+0	3.017961E-3	1.900811E-2	-1.015415E+1	1.967868E-2	1.183011E-2	7.205661E-2	3.673486E-2
10/19/2017  17:43:20.452206	-2.193147E+0	1.319332E-2	1.391770E-2	-1.014905E+1	2.477858E-2	2.200605E-2	6.188501E-2	3.419094E-2
10/19/2017  17:43:20.453206	4.784923E-1	2.082484E-2	1.646291E-2	-1.013632E+1	2.222863E-2	1.946206E-2	7.205661E-2	2.910311E-2
10/19/2017  17:43:20.454206	1.373276E+0	1.319332E-2	2.155331E-2	-1.013378E+1	1.457878E-2	1.946206E-2	7.714242E-2	3.673486E-2
10/19/2017  17:43:20.455206	-4.467948E-1	8.105642E-3	2.664372E-2	-1.012869E+1	1.967868E-2	1.691808E-2	6.951371E-2	3.164702E-2
10/19/2017  17:43:20.456206	4.970202E+0	8.105642E-3	8.827299E-3	-1.013632E+1	2.732853E-2	1.946206E-2	7.205661E-2	1.892744E-2
10/19/2017  17:43:20.457206	9.258839E-1	2.082484E-2	1.900811E-2	-1.015415E+1	2.222863E-2	1.946206E-2	7.205661E-2	2.401527E-2
10/19/2017  17:43:20.458206	-1.494098E+0	1.828100E-2	3.173413E-2	-1.013378E+1	1.712873E-2	2.200605E-2	7.714242E-2	2.910311E-2
10/19/2017  17:43:20.459206	-8.230105E-1	1.064948E-2	2.155331E-2	-1.013632E+1	1.712873E-2	2.200605E-2	7.968532E-2	3.927877E-2
10/19/2017  17:43:20.460206	4.352784E-1	8.105642E-3	6.282096E-3	-1.013887E+1	2.732853E-2	1.691808E-2	6.951371E-2	3.164702E-2
10/19/2017  17:43:20.461206	1.330677E-2	1.319332E-2	1.900811E-2	-1.013632E+1	2.732853E-2	2.200605E-2	8.477112E-2	2.655919E-2
10/19/2017  17:43:20.462206	1.759946E-1	1.573716E-2	2.664372E-2	-1.013887E+1	1.712873E-2	2.455003E-2	7.205661E-2	3.419094E-2
10/19/2017  17:43:20.463206	4.889474E-2	2.082484E-2	1.900811E-2	-1.013632E+1	1.967868E-2	2.200605E-2	7.205661E-2	3.164702E-2
10/19/2017  17:43:20.464206	1.429487E-1	8.105642E-3	1.900811E-2	-1.013632E+1	2.477858E-2	6.742135E-3	7.205661E-2	3.673486E-2
10/19/2017  17:43:20.465206	1.785366E-1	8.105642E-3	1.646291E-2	-1.014396E+1	2.477858E-2	1.946206E-2	6.951371E-2	2.910311E-2
10/19/2017  17:43:20.466206	-1.494098E+0	1.828100E-2	1.391770E-2	-1.014651E+1	2.987847E-2	3.981394E-2	6.951371E-2	2.910311E-2
10/19/2017  17:43:20.467206	-2.739390E-1	2.591253E-2	2.664372E-2	-1.014396E+1	1.457878E-2	2.709402E-2	7.714242E-2	2.655919E-2
10/19/2017  17:43:20.468206	2.557846E+0	1.064948E-2	2.409852E-2	-1.013887E+1	2.222863E-2	1.946206E-2	7.968532E-2	3.673486E-2
10/19/2017  17:43:20.469206	2.092661E+0	4.741205E-4	1.900811E-2	-1.013123E+1	1.712873E-2	1.946206E-2	6.951371E-2	3.419094E-2
10/19/2017  17:43:20.470206	4.520269E+0	1.064948E-2	1.137250E-2	-1.012869E+1	2.987847E-2	2.200605E-2	6.697081E-2	3.164702E-2
10/19/2017  17:43:20.471206	-1.496640E+0	1.828100E-2	1.900811E-2	-1.014651E+1	3.497837E-2	2.200605E-2	8.222822E-2	2.910311E-2
								
10/19/2017  17:43:20.472206	-2.449889E+0	1.573716E-2	2.409852E-2	-1.013887E+1	1.457878E-2	2.709402E-2	7.714242E-2	3.164702E-2
10/19/2017  17:43:20.473206	-8.052165E-1	1.064948E-2	1.900811E-2	-1.013378E+1	1.457878E-2	1.437409E-2	7.968532E-2	3.164702E-2
10/19/2017  17:43:20.474206	-7.057916E-2	8.105642E-3	1.137250E-2	-1.013632E+1	2.477858E-2	1.946206E-2	7.205661E-2	3.164702E-2
10/19/2017  17:43:20.475206	1.772369E+0	1.319332E-2	2.155331E-2	-1.013887E+1	2.222863E-2	2.200605E-2	7.205661E-2	3.164702E-2
10/19/2017  17:43:20.476206	2.029111E+0	1.064948E-2	2.155331E-2	-1.012614E+1	2.222863E-2	1.946206E-2	7.968532E-2	2.401527E-2
10/19/2017  17:43:20.477206	-4.086648E-1	3.017961E-3	1.900811E-2	-1.013123E+1	1.457878E-2	1.437409E-2	7.968532E-2	3.419094E-2
10/19/2017  17:43:20.478206	-1.346662E+0	1.573716E-2	1.900811E-2	-1.012869E+1	2.222863E-2	1.437409E-2	7.205661E-2	3.164702E-2
10/19/2017  17:43:20.479206	-1.971993E+0	5.561801E-3	1.391770E-2	-1.014905E+1	2.477858E-2	2.963800E-2	6.951371E-2	2.910311E-2
10/19/2017  17:43:20.480206	-2.597325E+0	2.591253E-2	2.409852E-2	-1.014396E+1	1.457878E-2	2.709402E-2	8.731403E-2	2.910311E-2
10/19/2017  17:43:20.481206	-3.194694E+0	5.561801E-3	1.137250E-2	-1.013632E+1	1.967868E-2	1.437409E-2	7.205661E-2	3.673486E-2
10/19/2017  17:43:20.482206	-2.279575E+0	5.561801E-3	2.155331E-2	-1.014142E+1	1.967868E-2	1.946206E-2	5.934210E-2	3.164702E-2
10/19/2017  17:43:20.483206	-2.848983E+0	1.573716E-2	1.900811E-2	-1.014651E+1	1.967868E-2	2.709402E-2	7.205661E-2	2.655919E-2
10/19/2017  17:43:20.484206	4.073164E-1	1.828100E-2	2.409852E-2	-1.013123E+1	1.712873E-2	2.200605E-2	7.968532E-2	3.164702E-2
10/19/2017  17:43:20.485206	3.800883E+0	5.561801E-3	1.900811E-2	-1.012614E+1	2.987847E-2	1.183011E-2	7.205661E-2	4.182269E-2
10/19/2017  17:43:20.486206	5.003248E+0	8.105642E-3	1.137250E-2	-1.012869E+1	2.987847E-2	2.455003E-2	6.951371E-2	3.419094E-2
10/19/2017  17:43:20.487206	4.929530E+0	1.828100E-2	1.137250E-2	-1.013632E+1	3.242842E-2	3.726996E-2	7.459952E-2	1.892744E-2
10/19/2017  17:43:20.488206	-5.001768E-1	1.828100E-2	2.155331E-2	-1.015415E+1	2.222863E-2	2.200605E-2	8.222822E-2	3.164702E-2
10/19/2017  17:43:20.489206	-3.306542E+0	3.017961E-3	1.900811E-2	-1.014142E+1	1.967868E-2	1.183011E-2	7.205661E-2	4.182269E-2
10/19/2017  17:43:20.490206	-3.314168E+0	1.319332E-2	1.391770E-2	-1.014651E+1	1.712873E-2	2.455003E-2	6.442791E-2	2.655919E-2
10/19/2017  17:43:20.491206	-1.720336E+0	1.064948E-2	1.646291E-2	-1.014651E+1	2.222863E-2	1.946206E-2	7.205661E-2	2.147136E-2
10/19/2017  17:43:20.492206	4.635274E-2	1.319332E-2	1.646291E-2	-1.013123E+1	9.478889E-3	2.200605E-2	8.477112E-2	3.419094E-2
10/19/2017  17:43:20.493206	-3.374889E-1	1.319332E-2	2.409852E-2	-1.013123E+1	2.222863E-2	2.455003E-2	7.205661E-2	3.673486E-2
10/19/2017  17:43:20.494206	-1.260234E+0	1.064948E-2	1.646291E-2	-1.013632E+1	2.222863E-2	2.200605E-2	7.968532E-2	2.655919E-2
10/19/2017  17:43:20.495206	-1.178890E+0	1.319332E-2	1.137250E-2	-1.014651E+1	2.477858E-2	1.946206E-2	7.459952E-2	2.401527E-2
10/19/2017  17:43:20.496206	8.979220E-1	1.319332E-2	1.900811E-2	-1.013887E+1	1.967868E-2	2.200605E-2	7.459952E-2	4.691052E-2
10/19/2017  17:43:20.497206	2.705282E+0	1.828100E-2	1.900811E-2	-1.013378E+1	1.712873E-2	1.691808E-2	7.459952E-2	3.927877E-2
10/19/2017  17:43:20.498206	-1.819474E+0	1.319332E-2	2.155331E-2	-1.013887E+1	2.222863E-2	1.946206E-2	7.459952E-2	2.910311E-2
10/19/2017  17:43:20.499206	-6.323606E-1	1.064948E-2	1.391770E-2	-1.013632E+1	2.222863E-2	2.455003E-2	6.442791E-2	2.401527E-2
10/19/2017  17:43:20.500206	3.694119E+0	3.017961E-3	1.137250E-2	-1.014651E+1	1.967868E-2	2.200605E-2	7.459952E-2	3.164702E-2
10/19/2017  17:43:20.501206	4.993080E+0	8.105642E-3	1.900811E-2	-1.011850E+1	2.222863E-2	1.437409E-2	8.731403E-2	2.910311E-2
10/19/2017  17:43:20.502206	-9.984083E-1	1.828100E-2	1.137250E-2	-1.013632E+1	3.242842E-2	1.437409E-2	7.205661E-2	3.419094E-2
10/19/2017  17:43:20.503206	-4.109814E+0	1.319332E-2	1.900811E-2	-1.014905E+1	2.222863E-2	2.963800E-2	6.442791E-2	2.401527E-2
10/19/2017  17:43:20.504206	2.428205E+0	1.319332E-2	1.646291E-2	-1.014142E+1	4.378993E-3	1.946206E-2	8.222822E-2	2.401527E-2
								
10/19/2017  17:43:20.505206	-5.510167E-1	1.319332E-2	2.155331E-2	-1.013378E+1	2.732853E-2	1.437409E-2	7.459952E-2	3.927877E-2
10/19/2017  17:43:20.506206	-1.570358E+0	1.319332E-2	1.391770E-2	-1.013378E+1	2.987847E-2	3.981394E-2	6.951371E-2	3.419094E-2
10/19/2017  17:43:20.507206	-1.148386E+0	2.591253E-2	1.900811E-2	-1.013632E+1	2.222863E-2	2.709402E-2	7.459952E-2	2.910311E-2
10/19/2017  17:43:20.508206	1.988726E-1	1.064948E-2	2.155331E-2	-1.014905E+1	1.712873E-2	2.200605E-2	7.714242E-2	2.910311E-2
10/19/2017  17:43:20.509206	-1.021286E+0	1.064948E-2	1.900811E-2	-1.014905E+1	1.202884E-2	1.183011E-2	6.951371E-2	3.419094E-2
10/19/2017  17:43:20.510206	-2.762555E+0	1.064948E-2	1.646291E-2	-1.013887E+1	2.477858E-2	1.946206E-2	7.459952E-2	3.673486E-2
10/19/2017  17:43:20.511206	-5.967727E-1	8.105642E-3	1.900811E-2	-1.014905E+1	3.242842E-2	2.455003E-2	7.459952E-2	2.655919E-2
10/19/2017  17:43:20.512206	-3.349469E-1	1.064948E-2	1.391770E-2	-1.014396E+1	2.222863E-2	2.455003E-2	7.459952E-2	3.927877E-2
10/19/2017  17:43:20.513206	4.378204E-1	1.064948E-2	1.391770E-2	-1.013632E+1	2.477858E-2	2.455003E-2	6.188501E-2	3.164702E-2
10/19/2017  17:43:20.514206	-7.492925E-1	1.064948E-2	2.409852E-2	-1.014651E+1	1.967868E-2	2.963800E-2	7.459952E-2	2.401527E-2
10/19/2017  17:43:20.515206	2.751325E-1	1.319332E-2	2.155331E-2	-1.013887E+1	2.477858E-2	2.200605E-2	7.714242E-2	3.673486E-2
10/19/2017  17:43:20.516206	4.952408E+0	1.064948E-2	3.427933E-2	-1.013632E+1	1.712873E-2	2.455003E-2	8.222822E-2	3.927877E-2
10/19/2017  17:43:20.517206	1.088572E+0	4.741205E-4	1.137250E-2	-1.013123E+1	2.477858E-2	1.183011E-2	7.459952E-2	3.673486E-2
10/19/2017  17:43:20.518206	2.740870E+0	1.573716E-2	1.137250E-2	-1.014142E+1	2.477858E-2	1.691808E-2	7.205661E-2	3.164702E-2
10/19/2017  17:43:20.519206	-4.778359E+0	2.082484E-2	2.155331E-2	-1.015415E+1	2.222863E-2	2.709402E-2	7.205661E-2	2.401527E-2
10/19/2017  17:43:20.520206	-2.485477E+0	8.105642E-3	2.409852E-2	-1.014651E+1	1.967868E-2	2.963800E-2	7.714242E-2	3.927877E-2
10/19/2017  17:43:20.521206	2.501923E+0	8.105642E-3	6.282096E-3	-1.013632E+1	1.967868E-2	9.286120E-3	7.459952E-2	3.673486E-2
10/19/2017  17:43:20.522206	2.293479E+0	8.105642E-3	1.137250E-2	-1.013378E+1	2.987847E-2	2.200605E-2	5.171340E-2	3.164702E-2
10/19/2017  17:43:20.523206	1.007228E+0	1.828100E-2	2.664372E-2	-1.014142E+1	1.967868E-2	3.472597E-2	7.205661E-2	2.655919E-2
10/19/2017  17:43:20.524206	2.235013E+0	1.828100E-2	2.409852E-2	-1.013632E+1	1.712873E-2	1.946206E-2	7.968532E-2	2.910311E-2
10/19/2017  17:43:20.525206	2.191799E+0	5.561801E-3	1.646291E-2	-1.013123E+1	3.497837E-2	2.709402E-2	7.459952E-2	4.182269E-2
10/19/2017  17:43:20.526206	8.750440E-1	5.561801E-3	1.900811E-2	-1.013887E+1	2.222863E-2	2.963800E-2	6.951371E-2	3.419094E-2
10/19/2017  17:43:20.527206	-1.524602E+0	1.573716E-2	1.646291E-2	-1.014905E+1	1.967868E-2	2.455003E-2	7.459952E-2	2.147136E-2
10/19/2017  17:43:20.528206	-2.798143E+0	8.105642E-3	2.409852E-2	-1.013887E+1	2.222863E-2	1.691808E-2	8.222822E-2	3.673486E-2
10/19/2017  17:43:20.529206	-1.211936E+0	5.561801E-3	1.391770E-2	-1.013887E+1	2.477858E-2	1.437409E-2	6.951371E-2	3.927877E-2
10/19/2017  17:43:20.530206	-1.214191E-1	1.064948E-2	1.137250E-2	-1.015415E+1	3.242842E-2	2.709402E-2	6.951371E-2	2.401527E-2
10/19/2017  17:43:20.531206	3.412245E-1	1.573716E-2	2.409852E-2	-1.014905E+1	1.457878E-2	2.200605E-2	8.222822E-2	3.164702E-2
10/19/2017  17:43:20.532206	-3.334504E+0	1.064948E-2	1.900811E-2	-1.014396E+1	3.497837E-2	2.200605E-2	7.459952E-2	4.436661E-2
10/19/2017  17:43:20.533206	3.722081E+0	5.561801E-3	1.646291E-2	-1.012869E+1	2.222863E-2	1.946206E-2	6.442791E-2	3.164702E-2
10/19/2017  17:43:20.534206	4.802430E+0	1.319332E-2	8.827299E-3	-1.013632E+1	2.732853E-2	2.455003E-2	6.951371E-2	1.892744E-2
10/19/2017  17:43:20.535206	-1.420380E+0	1.064948E-2	1.646291E-2	-1.015415E+1	1.457878E-2	1.946206E-2	7.968532E-2	2.655919E-2
10/19/2017  17:43:20.536206	-1.204310E+0	1.064948E-2	2.918892E-2	-1.014142E+1	1.457878E-2	2.200605E-2	8.222822E-2	4.182269E-2
10/19/2017  17:43:20.537206	1.251260E+0	5.561801E-3	2.155331E-2	-1.011086E+1	2.732853E-2	1.691808E-2	7.459952E-2	3.419094E-2
								
10/19/2017  17:43:20.538206	3.742704E-1	1.573716E-2	6.282096E-3	-1.014651E+1	2.987847E-2	1.691808E-2	6.951371E-2	2.655919E-2
10/19/2017  17:43:20.539206	2.929265E-1	1.319332E-2	1.646291E-2	-1.014651E+1	2.222863E-2	2.963800E-2	6.442791E-2	3.164702E-2
10/19/2017  17:43:20.540206	2.853005E-1	4.741205E-4	1.900811E-2	-1.013887E+1	1.202884E-2	1.946206E-2	7.968532E-2	3.927877E-2
10/19/2017  17:43:20.541206	4.980370E+0	1.064948E-2	1.900811E-2	-1.012869E+1	2.732853E-2	1.437409E-2	7.459952E-2	3.927877E-2
10/19/2017  17:43:20.542206	3.005238E+0	1.064948E-2	2.664372E-2	-1.012869E+1	3.497837E-2	2.709402E-2	7.714242E-2	3.164702E-2
10/19/2017  17:43:20.543206	-1.384792E+0	1.573716E-2	1.900811E-2	-1.014142E+1	1.967868E-2	2.455003E-2	7.205661E-2	2.655919E-2
10/19/2017  17:43:20.544206	-2.777807E+0	1.319332E-2	2.155331E-2	-1.014142E+1	4.378993E-3	1.946206E-2	8.222822E-2	2.655919E-2
10/19/2017  17:43:20.545206	-3.507360E+0	1.064948E-2	1.391770E-2	-1.014651E+1	2.477858E-2	1.946206E-2	7.459952E-2	3.164702E-2
10/19/2017  17:43:20.546206	-1.616114E+0	1.319332E-2	1.646291E-2	-1.013887E+1	2.222863E-2	3.726996E-2	7.459952E-2	3.673486E-2
10/19/2017  17:43:20.547206	1.098740E+0	4.741205E-4	1.646291E-2	-1.014142E+1	2.477858E-2	1.946206E-2	7.714242E-2	2.655919E-2
10/19/2017  17:43:20.548206	2.517175E+0	1.319332E-2	1.391770E-2	-1.013378E+1	1.202884E-2	6.742135E-3	8.222822E-2	3.164702E-2
10/19/2017  17:43:20.549206	3.610234E+0	-2.069720E-3	1.137250E-2	-1.013632E+1	3.242842E-2	1.691808E-2	6.951371E-2	3.673486E-2
10/19/2017  17:43:20.550206	-9.450264E-1	1.573716E-2	1.391770E-2	-1.012869E+1	2.477858E-2	2.709402E-2	6.951371E-2	2.910311E-2
10/19/2017  17:43:20.551206	-9.958663E-1	1.573716E-2	2.155331E-2	-1.013378E+1	9.478889E-3	2.455003E-2	7.205661E-2	2.910311E-2
10/19/2017  17:43:20.552206	-1.516976E+0	3.017961E-3	2.155331E-2	-1.012614E+1	1.457878E-2	1.691808E-2	7.968532E-2	3.927877E-2
10/19/2017  17:43:20.553206	6.818522E-1	3.017961E-3	1.900811E-2	-1.013378E+1	1.457878E-2	1.946206E-2	6.442791E-2	3.419094E-2
10/19/2017  17:43:20.554206	-2.564279E+0	1.064948E-2	1.391770E-2	-1.013378E+1	1.967868E-2	2.200605E-2	7.205661E-2	2.910311E-2
10/19/2017  17:43:20.555206	3.996904E-1	2.082484E-2	1.646291E-2	-1.014651E+1	1.967868E-2	2.200605E-2	7.459952E-2	2.401527E-2
10/19/2017  17:43:20.556206	-3.001503E+0	1.573716E-2	1.900811E-2	-1.015669E+1	1.712873E-2	1.691808E-2	7.459952E-2	3.419094E-2
10/19/2017  17:43:20.557206	-2.355835E+0	5.561801E-3	1.900811E-2	-1.013632E+1	1.202884E-2	1.946206E-2	7.968532E-2	2.910311E-2
10/19/2017  17:43:20.558206	-2.175353E+0	8.105642E-3	1.391770E-2	-1.015160E+1	2.477858E-2	6.742135E-3	7.205661E-2	4.182269E-2
10/19/2017  17:43:20.559206	-7.492925E-1	2.082484E-2	1.900811E-2	-1.014396E+1	2.987847E-2	2.455003E-2	6.697081E-2	3.927877E-2
10/19/2017  17:43:20.560206	1.899469E+0	1.828100E-2	2.155331E-2	-1.014651E+1	1.967868E-2	3.472597E-2	6.951371E-2	3.164702E-2
10/19/2017  17:43:20.561206	-5.255967E-1	1.064948E-2	2.155331E-2	-1.013123E+1	1.202884E-2	1.946206E-2	7.714242E-2	3.164702E-2
10/19/2017  17:43:20.562206	-6.857426E-1	1.064948E-2	2.155331E-2	-1.013378E+1	1.967868E-2	1.437409E-2	8.222822E-2	4.182269E-2
10/19/2017  17:43:20.563206	-1.308532E+0	8.105642E-3	2.918892E-2	-1.013378E+1	2.987847E-2	2.200605E-2	6.697081E-2	3.419094E-2
10/19/2017  17:43:20.564206	-1.595778E+0	1.828100E-2	1.137250E-2	-1.014651E+1	2.477858E-2	2.709402E-2	6.697081E-2	2.655919E-2
10/19/2017  17:43:20.565206	1.162290E+0	1.828100E-2	1.391770E-2	-1.014651E+1	4.378993E-3	2.200605E-2	7.968532E-2	2.147136E-2
10/19/2017  17:43:20.566206	4.993080E+0	4.741205E-4	2.409852E-2	-1.013887E+1	1.457878E-2	1.183011E-2	7.459952E-2	3.673486E-2
10/19/2017  17:43:20.567206	4.985454E+0	8.105642E-3	1.900811E-2	-1.011596E+1	2.477858E-2	1.691808E-2	7.459952E-2	3.673486E-2
10/19/2017  17:43:20.568206	-1.219562E+0	2.082484E-2	1.137250E-2	-1.013123E+1	2.987847E-2	1.946206E-2	6.697081E-2	2.910311E-2
10/19/2017  17:43:20.569206	-1.672038E+0	1.828100E-2	1.646291E-2	-1.015160E+1	2.987847E-2	1.691808E-2	6.951371E-2	2.401527E-2
10/19/2017  17:43:20.570206	-2.053337E+0	4.741205E-4	2.409852E-2	-1.014651E+1	1.712873E-2	3.218199E-2	7.459952E-2	3.673486E-2
								
10/19/2017  17:43:20.571206	2.344606E-1	8.105642E-3	1.646291E-2	-1.012869E+1	1.202884E-2	1.691808E-2	8.222822E-2	4.182269E-2
10/19/2017  17:43:20.572206	6.513482E-1	5.561801E-3	1.391770E-2	-1.012869E+1	3.497837E-2	1.437409E-2	6.951371E-2	3.164702E-2
10/19/2017  17:43:20.573206	1.658266E-1	1.828100E-2	2.155331E-2	-1.014651E+1	2.987847E-2	2.709402E-2	7.205661E-2	2.401527E-2
10/19/2017  17:43:20.574206	-1.082294E+0	2.082484E-2	2.409852E-2	-1.014142E+1	1.829045E-3	2.455003E-2	7.205661E-2	1.892744E-2
10/19/2017  17:43:20.575206	-4.084394E+0	8.105642E-3	1.646291E-2	-1.014396E+1	1.967868E-2	1.183011E-2	7.205661E-2	3.927877E-2
10/19/2017  17:43:20.576206	-3.733598E+0	3.017961E-3	1.391770E-2	-1.014142E+1	2.987847E-2	1.437409E-2	7.205661E-2	3.927877E-2
10/19/2017  17:43:20.577206	-4.122523E+0	2.082484E-2	1.137250E-2	-1.014905E+1	2.477858E-2	2.963800E-2	7.205661E-2	2.655919E-2
10/19/2017  17:43:20.578206	-3.105724E+0	2.336868E-2	2.409852E-2	-1.014905E+1	1.457878E-2	2.200605E-2	7.714242E-2	2.655919E-2
10/19/2017  17:43:20.579206	4.233023E+0	8.105642E-3	2.409852E-2	-1.012105E+1	1.712873E-2	6.742135E-3	7.205661E-2	3.673486E-2
10/19/2017  17:43:20.580206	5.005790E+0	-2.069720E-3	1.900811E-2	-1.011850E+1	3.242842E-2	1.691808E-2	6.951371E-2	3.164702E-2
10/19/2017  17:43:20.581206	5.166223E-1	1.828100E-2	1.137250E-2	-1.013887E+1	2.987847E-2	3.218199E-2	7.968532E-2	2.401527E-2
10/19/2017  17:43:20.582206	-4.539411E+0	2.336868E-2	3.173413E-2	-1.014142E+1	2.477858E-2	1.946206E-2	7.459952E-2	2.910311E-2
10/19/2017  17:43:20.583206	-3.855614E+0	1.064948E-2	1.646291E-2	-1.015160E+1	1.712873E-2	1.437409E-2	6.188501E-2	3.673486E-2
10/19/2017  17:43:20.584206	-3.349469E-1	8.105642E-3	3.736893E-3	-1.014142E+1	2.222863E-2	1.691808E-2	6.951371E-2	2.910311E-2
10/19/2017  17:43:20.585206	6.005082E-1	2.845637E-2	1.646291E-2	-1.013887E+1	2.477858E-2	2.200605E-2	7.714242E-2	2.910311E-2
10/19/2017  17:43:20.586206	4.726171E+0	1.319332E-2	1.137250E-2	-1.012869E+1	2.477858E-2	2.200605E-2	7.968532E-2	3.927877E-2
10/19/2017  17:43:20.587206	2.410411E+0	5.561801E-3	1.646291E-2	-1.013887E+1	1.712873E-2	1.183011E-2	6.188501E-2	3.164702E-2
10/19/2017  17:43:20.588206	3.138778E-3	1.828100E-2	8.827299E-3	-1.013632E+1	2.222863E-2	2.200605E-2	7.205661E-2	1.892744E-2
10/19/2017  17:43:20.589206	2.700198E+0	2.336868E-2	2.664372E-2	-1.014651E+1	2.477858E-2	1.946206E-2	7.714242E-2	3.419094E-2
10/19/2017  17:43:20.590206	2.857802E+0	5.561801E-3	2.155331E-2	-1.012614E+1	2.987847E-2	1.691808E-2	7.459952E-2	3.164702E-2
10/19/2017  17:43:20.591206	1.810499E+0	1.319332E-2	1.900811E-2	-1.011850E+1	1.202884E-2	1.437409E-2	7.205661E-2	3.164702E-2
10/19/2017  17:43:20.592206	-5.510167E-1	1.573716E-2	1.391770E-2	-1.014142E+1	2.222863E-2	1.946206E-2	7.205661E-2	2.910311E-2
10/19/2017  17:43:20.593206	7.733641E-1	1.319332E-2	2.664372E-2	-1.013378E+1	4.378993E-3	1.437409E-2	7.459952E-2	3.927877E-2
10/19/2017  17:43:20.594206	-2.205857E+0	1.319332E-2	1.646291E-2	-1.013378E+1	2.987847E-2	2.455003E-2	6.951371E-2	2.401527E-2
10/19/2017  17:43:20.595206	-2.470225E+0	2.082484E-2	1.646291E-2	-1.014905E+1	1.967868E-2	2.709402E-2	7.714242E-2	1.892744E-2
10/19/2017  17:43:20.596206	3.472966E+0	1.064948E-2	2.409852E-2	-1.013123E+1	1.712873E-2	1.183011E-2	7.459952E-2	3.673486E-2
10/19/2017  17:43:20.597206	5.005790E+0	3.017961E-3	1.646291E-2	-1.011850E+1	3.242842E-2	1.691808E-2	7.459952E-2	4.436661E-2
10/19/2017  17:43:20.598206	1.098740E+0	1.319332E-2	1.900811E-2	-1.014142E+1	1.967868E-2	1.691808E-2	7.459952E-2	2.401527E-2
10/19/2017  17:43:20.599206	-1.608488E+0	1.319332E-2	2.664372E-2	-1.014396E+1	2.477858E-2	1.946206E-2	7.459952E-2	2.910311E-2
10/19/2017  17:43:20.600206	-7.289566E-1	1.319332E-2	1.900811E-2	-1.014396E+1	2.477858E-2	2.455003E-2	6.442791E-2	3.419094E-2
10/19/2017  17:43:20.601206	3.412245E-1	5.561801E-3	1.137250E-2	-1.014142E+1	2.732853E-2	2.200605E-2	6.951371E-2	2.910311E-2
10/19/2017  17:43:20.602206	7.504861E-1	1.828100E-2	1.900811E-2	-1.014142E+1	2.222863E-2	3.218199E-2	8.222822E-2	2.147136E-2
10/19/2017  17:43:20.603206	6.157602E-1	1.064948E-2	2.918892E-2	-1.013378E+1	2.222863E-2	2.200605E-2	7.205661E-2	3.164702E-2
								
10/19/2017  17:43:20.604206	1.891843E+0	4.741205E-4	1.900811E-2	-1.013378E+1	1.712873E-2	2.455003E-2	7.459952E-2	2.910311E-2
10/19/2017  17:43:20.605206	8.369140E-1	1.064948E-2	1.137250E-2	-1.013632E+1	1.457878E-2	9.286120E-3	7.205661E-2	2.910311E-2
10/19/2017  17:43:20.606206	3.946064E-1	1.828100E-2	1.900811E-2	-1.013378E+1	1.967868E-2	1.946206E-2	7.205661E-2	3.164702E-2
10/19/2017  17:43:20.607206	6.055922E-1	1.064948E-2	2.155331E-2	-1.013378E+1	2.477858E-2	1.946206E-2	7.205661E-2	4.182269E-2
10/19/2017  17:43:20.608206	-6.298186E-1	2.082484E-2	1.137250E-2	-1.013632E+1	3.242842E-2	1.946206E-2	6.951371E-2	2.910311E-2
10/19/2017  17:43:20.609206	-1.031454E+0	1.319332E-2	1.646291E-2	-1.015160E+1	1.457878E-2	2.455003E-2	7.205661E-2	2.655919E-2
10/19/2017  17:43:20.610206	9.462199E-1	2.082484E-2	2.409852E-2	-1.014396E+1	1.202884E-2	1.437409E-2	7.714242E-2	4.182269E-2
10/19/2017  17:43:20.611206	-4.086648E-1	8.105642E-3	1.391770E-2	-1.012869E+1	2.987847E-2	1.437409E-2	6.697081E-2	4.182269E-2
10/19/2017  17:43:20.612206	-7.009946E-1	1.573716E-2	1.137250E-2	-1.013378E+1	4.262821E-2	1.946206E-2	7.205661E-2	1.638352E-2
10/19/2017  17:43:20.613206	6.284702E-1	2.082484E-2	2.155331E-2	-1.013887E+1	1.712873E-2	2.963800E-2	7.968532E-2	3.164702E-2
10/19/2017  17:43:20.614206	1.243634E+0	3.017961E-3	1.900811E-2	-1.012869E+1	1.457878E-2	1.437409E-2	8.222822E-2	2.910311E-2
10/19/2017  17:43:20.615206	-1.382250E+0	1.319332E-2	8.827299E-3	-1.014396E+1	2.987847E-2	2.200605E-2	7.205661E-2	3.164702E-2
10/19/2017  17:43:20.616206	3.259725E-1	2.082484E-2	2.155331E-2	-1.014396E+1	2.222863E-2	2.709402E-2	7.714242E-2	3.673486E-2
10/19/2017  17:43:20.617206	9.465070E-2	1.064948E-2	3.173413E-2	-1.011850E+1	1.457878E-2	2.455003E-2	7.968532E-2	2.910311E-2
10/19/2017  17:43:20.618206	-5.306807E-1	3.017961E-3	1.391770E-2	-1.012869E+1	1.712873E-2	1.437409E-2	7.459952E-2	2.147136E-2
10/19/2017  17:43:20.619206	3.335985E-1	2.082484E-2	1.137250E-2	-1.014142E+1	2.987847E-2	1.437409E-2	7.205661E-2	2.401527E-2
10/19/2017  17:43:20.620206	-2.287201E+0	1.064948E-2	2.155331E-2	-1.014142E+1	2.477858E-2	2.963800E-2	7.205661E-2	2.910311E-2
10/19/2017  17:43:20.621206	-3.067594E+0	1.064948E-2	2.155331E-2	-1.014142E+1	1.457878E-2	2.200605E-2	8.985693E-2	2.910311E-2
10/19/2017  17:43:20.622206	-1.011118E+0	3.017961E-3	2.155331E-2	-1.014142E+1	2.477858E-2	9.286120E-3	6.697081E-2	3.673486E-2
10/19/2017  17:43:20.623206	-1.422922E+0	1.064948E-2	1.391770E-2	-1.014651E+1	2.987847E-2	2.963800E-2	6.697081E-2	2.401527E-2
10/19/2017  17:43:20.624206	-1.239898E+0	1.828100E-2	1.137250E-2	-1.014651E+1	1.457878E-2	2.455003E-2	7.459952E-2	3.419094E-2
10/19/2017  17:43:20.625206	4.972744E+0	1.828100E-2	2.409852E-2	-1.013378E+1	2.222863E-2	2.200605E-2	7.968532E-2	3.419094E-2
10/19/2017  17:43:20.626206	9.513039E-1	8.105642E-3	1.900811E-2	-1.013632E+1	2.732853E-2	2.455003E-2	7.459952E-2	4.182269E-2
10/19/2017  17:43:20.627206	-2.185521E+0	5.561801E-3	1.391770E-2	-1.013887E+1	2.732853E-2	2.200605E-2	6.442791E-2	3.164702E-2
10/19/2017  17:43:20.628206	-1.161096E+0	1.828100E-2	1.646291E-2	-1.014651E+1	2.477858E-2	3.472597E-2	7.714242E-2	2.147136E-2
10/19/2017  17:43:20.629206	3.364275E-2	3.100021E-2	2.155331E-2	-1.013887E+1	2.477858E-2	2.200605E-2	8.222822E-2	3.419094E-2
10/19/2017  17:43:20.630206	2.936604E+0	8.105642E-3	2.155331E-2	-1.013123E+1	1.967868E-2	1.437409E-2	7.459952E-2	4.436661E-2
10/19/2017  17:43:20.631206	-2.485190E-1	1.064948E-2	1.137250E-2	-1.012869E+1	1.712873E-2	1.946206E-2	6.697081E-2	2.401527E-2
10/19/2017  17:43:20.632206	-1.623740E+0	1.828100E-2	1.646291E-2	-1.015415E+1	2.222863E-2	2.455003E-2	7.459952E-2	2.401527E-2
10/19/2017  17:43:20.633206	-2.198231E+0	1.064948E-2	2.409852E-2	-1.013887E+1	1.457878E-2	2.200605E-2	7.968532E-2	3.673486E-2
10/19/2017  17:43:20.634206	-7.314986E-1	1.064948E-2	1.900811E-2	-1.012614E+1	2.222863E-2	1.691808E-2	7.459952E-2	3.927877E-2
10/19/2017  17:43:20.635206	1.111450E+0	1.064948E-2	1.137250E-2	-1.013378E+1	2.477858E-2	1.946206E-2	7.205661E-2	2.147136E-2
10/19/2017  17:43:20.636206	3.180636E+0	1.828100E-2	1.137250E-2	-1.014396E+1	1.967868E-2	2.200605E-2	7.459952E-2	3.164702E-2
								
10/19/2017  17:43:20.637206	3.139964E+0	1.064948E-2	2.918892E-2	-1.013378E+1	1.457878E-2	2.455003E-2	7.968532E-2	4.182269E-2
10/19/2017  17:43:20.638206	7.177272E-2	8.105642E-3	1.900811E-2	-1.010832E+1	1.967868E-2	2.200605E-2	7.714242E-2	3.673486E-2
10/19/2017  17:43:20.639206	1.286848E+0	2.082484E-2	1.137250E-2	-1.014651E+1	2.987847E-2	1.946206E-2	6.951371E-2	1.129569E-2
10/19/2017  17:43:20.640206	6.284702E-1	1.573716E-2	1.646291E-2	-1.014396E+1	1.967868E-2	2.963800E-2	6.951371E-2	2.401527E-2
10/19/2017  17:43:20.641206	-1.280570E+0	-2.069720E-3	1.646291E-2	-1.013887E+1	9.478889E-3	1.946206E-2	7.968532E-2	4.182269E-2
10/19/2017  17:43:20.642206	-1.331410E+0	1.064948E-2	1.137250E-2	-1.013887E+1	2.732853E-2	9.286120E-3	7.205661E-2	3.673486E-2
10/19/2017  17:43:20.643206	-4.615671E+0	1.319332E-2	2.409852E-2	-1.014905E+1	2.477858E-2	2.455003E-2	6.951371E-2	3.164702E-2
10/19/2017  17:43:20.644206	-4.946131E+0	1.573716E-2	1.900811E-2	-1.014905E+1	2.222863E-2	2.709402E-2	6.951371E-2	3.164702E-2
10/19/2017  17:43:20.645206	-4.935963E+0	1.319332E-2	1.900811E-2	-1.014905E+1	6.928941E-3	2.200605E-2	7.714242E-2	2.910311E-2
10/19/2017  17:43:20.646206	9.360519E-1	1.319332E-2	1.646291E-2	-1.013378E+1	2.477858E-2	1.437409E-2	7.459952E-2	3.927877E-2
10/19/2017  17:43:20.647206	1.190252E+0	1.319332E-2	1.391770E-2	-1.013378E+1	2.987847E-2	3.726996E-2	6.697081E-2	4.182269E-2
10/19/2017  17:43:20.648206	3.772921E+0	1.828100E-2	1.646291E-2	-1.012614E+1	2.222863E-2	2.709402E-2	7.459952E-2	3.419094E-2
10/19/2017  17:43:20.649206	3.048452E+0	1.064948E-2	2.155331E-2	-1.013378E+1	1.457878E-2	1.946206E-2	7.968532E-2	2.655919E-2
10/19/2017  17:43:20.650206	2.440915E+0	2.591253E-2	1.900811E-2	-1.013887E+1	1.712873E-2	1.691808E-2	7.459952E-2	3.927877E-2
10/19/2017  17:43:20.651206	1.947767E+0	1.319332E-2	1.646291E-2	-1.013887E+1	2.477858E-2	1.946206E-2	6.951371E-2	3.164702E-2
10/19/2017  17:43:20.652206	1.200420E+0	1.828100E-2	1.391770E-2	-1.014142E+1	1.967868E-2	2.709402E-2	7.459952E-2	2.910311E-2
10/19/2017  17:43:20.653206	9.614719E-1	1.319332E-2	1.900811E-2	-1.014396E+1	1.457878E-2	1.691808E-2	8.222822E-2	3.164702E-2
10/19/2017  17:43:20.654206	1.269054E+0	5.561801E-3	1.900811E-2	-1.013378E+1	2.477858E-2	1.437409E-2	6.442791E-2	4.182269E-2
10/19/2017  17:43:20.655206	-5.688107E-1	1.064948E-2	1.646291E-2	-1.012869E+1	2.732853E-2	2.200605E-2	6.951371E-2	3.164702E-2
10/19/2017  17:43:20.656206	1.134328E+0	2.082484E-2	1.646291E-2	-1.014905E+1	1.967868E-2	2.455003E-2	7.968532E-2	3.164702E-2
10/19/2017  17:43:20.657206	-9.196064E-1	1.319332E-2	2.409852E-2	-1.013887E+1	1.457878E-2	2.200605E-2	7.714242E-2	2.910311E-2
10/19/2017  17:43:20.658206	-2.073673E+0	3.017961E-3	1.646291E-2	-1.013378E+1	1.967868E-2	1.691808E-2	7.459952E-2	2.655919E-2
10/19/2017  17:43:20.659206	-7.416665E-1	1.319332E-2	1.391770E-2	-1.015415E+1	2.987847E-2	1.946206E-2	6.951371E-2	3.164702E-2
10/19/2017  17:43:20.660206	-2.554111E+0	2.336868E-2	2.155331E-2	-1.014651E+1	2.222863E-2	2.455003E-2	7.459952E-2	2.910311E-2
10/19/2017  17:43:20.661206	-9.170644E-1	1.828100E-2	2.664372E-2	-1.013887E+1	1.457878E-2	2.963800E-2	7.205661E-2	3.164702E-2
10/19/2017  17:43:20.662206	2.479045E+0	-2.069720E-3	1.391770E-2	-1.013378E+1	1.712873E-2	1.691808E-2	8.222822E-2	3.673486E-2
10/19/2017  17:43:20.663206	9.716399E-1	5.561801E-3	1.137250E-2	-1.013378E+1	3.242842E-2	1.437409E-2	7.968532E-2	2.910311E-2
10/19/2017  17:43:20.664206	2.853005E-1	1.828100E-2	1.391770E-2	-1.013887E+1	2.222863E-2	3.472597E-2	6.697081E-2	2.910311E-2
10/19/2017  17:43:20.665206	7.733641E-1	2.845637E-2	2.409852E-2	-1.013632E+1	1.202884E-2	2.709402E-2	7.968532E-2	3.164702E-2
10/19/2017  17:43:20.666206	3.818964E-1	8.105642E-3	2.664372E-2	-1.012869E+1	1.712873E-2	4.198150E-3	7.968532E-2	3.419094E-2
10/19/2017  17:43:20.667206	-4.391688E-1	5.561801E-3	1.137250E-2	-1.013887E+1	2.477858E-2	1.183011E-2	6.951371E-2	3.419094E-2
10/19/2017  17:43:20.668206	-9.679043E-1	1.828100E-2	1.900811E-2	-1.013887E+1	2.222863E-2	3.726996E-2	7.714242E-2	3.164702E-2
10/19/2017  17:43:20.669206	-1.196684E+0	1.573716E-2	2.664372E-2	-1.013887E+1	1.457878E-2	1.946206E-2	8.222822E-2	2.910311E-2
								
10/19/2017  17:43:20.670206	-5.789787E-1	8.105642E-3	1.900811E-2	-1.013887E+1	1.967868E-2	-8.898203E-4	7.459952E-2	3.927877E-2
10/19/2017  17:43:20.671206	-3.244919E-2	-4.613560E-3	1.137250E-2	-1.014651E+1	2.222863E-2	1.946206E-2	6.442791E-2	3.419094E-2
10/19/2017  17:43:20.672206	1.149580E+0	1.573716E-2	1.900811E-2	-1.013632E+1	1.967868E-2	2.963800E-2	7.459952E-2	2.655919E-2
10/19/2017  17:43:20.673206	1.581719E+0	1.319332E-2	2.409852E-2	-1.013378E+1	3.497837E-2	1.946206E-2	8.731403E-2	3.927877E-2
10/19/2017  17:43:20.674206	5.547523E-1	8.105642E-3	2.664372E-2	-1.012614E+1	1.967868E-2	1.437409E-2	7.459952E-2	4.182269E-2
10/19/2017  17:43:20.675206	2.057073E+0	1.064948E-2	1.137250E-2	-1.013632E+1	2.732853E-2	1.691808E-2	6.951371E-2	3.419094E-2
10/19/2017  17:43:20.676206	5.005790E+0	1.828100E-2	1.391770E-2	-1.013632E+1	1.967868E-2	1.946206E-2	6.951371E-2	3.164702E-2
10/19/2017  17:43:20.677206	4.838018E+0	1.064948E-2	2.155331E-2	-1.012614E+1	2.222863E-2	1.437409E-2	7.205661E-2	4.945444E-2
10/19/2017  17:43:20.678206	7.072721E-1	1.319332E-2	1.137250E-2	-1.012105E+1	1.967868E-2	2.200605E-2	6.697081E-2	3.164702E-2
10/19/2017  17:43:20.679206	-4.895291E+0	2.082484E-2	1.137250E-2	-1.015669E+1	1.202884E-2	2.709402E-2	8.222822E-2	2.401527E-2
10/19/2017  17:43:20.680206	-4.951215E+0	1.319332E-2	2.409852E-2	-1.016687E+1	1.712873E-2	1.437409E-2	6.951371E-2	4.182269E-2
10/19/2017  17:43:20.681206	-4.061516E+0	-2.069720E-3	2.155331E-2	-1.014142E+1	1.712873E-2	1.437409E-2	6.951371E-2	3.419094E-2
10/19/2017  17:43:20.682206	-4.892749E+0	2.082484E-2	1.391770E-2	-1.015160E+1	2.987847E-2	2.963800E-2	6.697081E-2	2.655919E-2
10/19/2017  17:43:20.683206	4.975286E+0	1.064948E-2	3.427933E-2	-1.013123E+1	2.222863E-2	2.709402E-2	7.714242E-2	3.419094E-2
10/19/2017  17:43:20.684206	4.962576E+0	3.017961E-3	1.137250E-2	-1.012359E+1	2.477858E-2	1.437409E-2	6.188501E-2	3.419094E-2
10/19/2017  17:43:20.685206	-1.745756E+0	2.082484E-2	-1.353514E-3	-1.013887E+1	1.967868E-2	3.218199E-2	6.697081E-2	2.401527E-2
10/19/2017  17:43:20.686206	-2.643081E+0	2.082484E-2	1.900811E-2	-1.013887E+1	2.732853E-2	1.946206E-2	7.205661E-2	2.910311E-2
10/19/2017  17:43:20.687206	-1.672038E+0	1.573716E-2	2.155331E-2	-1.014396E+1	2.477858E-2	1.691808E-2	7.205661E-2	3.927877E-2
10/19/2017  17:43:20.688206	-1.204310E+0	5.561801E-3	1.137250E-2	-1.013632E+1	2.222863E-2	1.946206E-2	6.697081E-2	2.401527E-2
10/19/2017  17:43:20.689206	2.344606E-1	1.828100E-2	1.646291E-2	-1.013887E+1	2.222863E-2	1.437409E-2	8.222822E-2	2.147136E-2
10/19/2017  17:43:20.690206	1.749491E+0	1.828100E-2	2.918892E-2	-1.013123E+1	4.378993E-3	1.183011E-2	7.714242E-2	4.182269E-2
10/19/2017  17:43:20.691206	8.521660E-1	1.573716E-2	1.646291E-2	-1.012869E+1	2.477858E-2	2.455003E-2	6.951371E-2	3.164702E-2
10/19/2017  17:43:20.692206	-1.105172E+0	2.591253E-2	1.900811E-2	-1.012614E+1	3.497837E-2	1.946206E-2	7.968532E-2	2.910311E-2
10/19/2017  17:43:20.693206	-1.509350E+0	1.319332E-2	1.391770E-2	-1.013887E+1	1.967868E-2	1.946206E-2	7.205661E-2	3.927877E-2
10/19/2017  17:43:20.694206	-1.105172E+0	1.573716E-2	1.391770E-2	-1.013887E+1	2.222863E-2	2.200605E-2	6.188501E-2	2.910311E-2
10/19/2017  17:43:20.695206	4.741422E+0	2.082484E-2	3.173413E-2	-1.012869E+1	1.457878E-2	2.455003E-2	7.714242E-2	2.655919E-2
10/19/2017  17:43:20.696206	4.957492E+0	1.064948E-2	2.664372E-2	-1.012614E+1	1.712873E-2	1.183011E-2	7.968532E-2	3.673486E-2
10/19/2017  17:43:20.697206	-1.829642E+0	1.064948E-2	2.409852E-2	-1.013123E+1	2.732853E-2	2.455003E-2	6.188501E-2	2.910311E-2
10/19/2017  17:43:20.698206	-2.495645E+0	1.064948E-2	1.137250E-2	-1.014396E+1	1.712873E-2	2.200605E-2	7.205661E-2	2.147136E-2
10/19/2017  17:43:20.699206	-1.689832E+0	8.105642E-3	1.900811E-2	-1.015669E+1	2.987847E-2	4.198150E-3	7.205661E-2	3.927877E-2
10/19/2017  17:43:20.700206	-1.384792E+0	2.845637E-2	1.391770E-2	-1.014651E+1	3.242842E-2	2.963800E-2	6.951371E-2	2.147136E-2
10/19/2017  17:43:20.701206	2.430747E+0	1.319332E-2	2.664372E-2	-1.013632E+1	1.457878E-2	2.963800E-2	7.968532E-2	3.419094E-2
10/19/2017  17:43:20.702206	3.976281E+0	8.105642E-3	1.137250E-2	-1.012105E+1	1.457878E-2	9.286120E-3	7.205661E-2	3.164702E-2
								
10/19/2017  17:43:20.703206	3.117086E+0	1.573716E-2	1.646291E-2	-1.013632E+1	2.222863E-2	1.946206E-2	6.697081E-2	2.910311E-2
10/19/2017  17:43:20.704206	-4.475861E+0	1.828100E-2	3.427933E-2	-1.014651E+1	1.712873E-2	1.946206E-2	7.205661E-2	3.673486E-2
10/19/2017  17:43:20.705206	-3.578536E+0	1.573716E-2	2.409852E-2	-1.014142E+1	1.712873E-2	1.946206E-2	7.205661E-2	2.910311E-2
10/19/2017  17:43:20.706206	-3.987798E+0	1.064948E-2	1.391770E-2	-1.014651E+1	2.987847E-2	1.183011E-2	7.205661E-2	2.401527E-2
10/19/2017  17:43:20.707206	-2.963373E+0	4.741205E-4	1.900811E-2	-1.014396E+1	2.732853E-2	2.200605E-2	7.459952E-2	2.910311E-2
10/19/2017  17:43:20.708206	4.888858E+0	1.319332E-2	1.646291E-2	-1.012869E+1	2.222863E-2	2.963800E-2	6.951371E-2	3.419094E-2
10/19/2017  17:43:20.709206	5.008332E+0	8.105642E-3	1.646291E-2	-1.013378E+1	2.987847E-2	2.200605E-2	7.459952E-2	3.673486E-2
10/19/2017  17:43:20.710206	4.754132E+0	1.319332E-2	2.155331E-2	-1.012869E+1	1.967868E-2	9.286120E-3	7.205661E-2	3.164702E-2
10/19/2017  17:43:20.711206	-3.314168E+0	4.741205E-4	1.900811E-2	-1.013378E+1	2.222863E-2	2.455003E-2	7.205661E-2	2.910311E-2
10/19/2017  17:43:20.712206	-4.943589E+0	1.319332E-2	2.409852E-2	-1.014651E+1	1.457878E-2	2.200605E-2	8.477112E-2	3.927877E-2
10/19/2017  17:43:20.713206	-4.760565E+0	1.064948E-2	2.155331E-2	-1.013887E+1	3.497837E-2	1.691808E-2	7.459952E-2	4.436661E-2
10/19/2017  17:43:20.714206	-3.779354E+0	1.573716E-2	1.900811E-2	-1.015160E+1	1.967868E-2	2.709402E-2	7.205661E-2	2.655919E-2
10/19/2017  17:43:20.715206	-2.114345E+0	1.064948E-2	2.409852E-2	-1.013632E+1	1.457878E-2	1.946206E-2	7.968532E-2	2.910311E-2
10/19/2017  17:43:20.716206	5.293323E-1	5.561801E-3	1.137250E-2	-1.013887E+1	2.222863E-2	2.455003E-2	6.951371E-2	2.910311E-2
10/19/2017  17:43:20.717206	5.010874E+0	1.064948E-2	2.155331E-2	-1.013123E+1	2.477858E-2	1.946206E-2	7.459952E-2	3.419094E-2
10/19/2017  17:43:20.718206	4.278779E+0	1.064948E-2	3.173413E-2	-1.011596E+1	1.457878E-2	2.455003E-2	7.459952E-2	3.927877E-2
10/19/2017  17:43:20.719206	-1.501724E+0	3.017961E-3	1.391770E-2	-1.012869E+1	1.967868E-2	1.183011E-2	7.459952E-2	2.401527E-2
10/19/2017  17:43:20.720206	-1.509350E+0	1.064948E-2	1.391770E-2	-1.013632E+1	2.987847E-2	1.183011E-2	6.188501E-2	2.401527E-2
10/19/2017  17:43:20.721206	-3.603669E-1	1.064948E-2	2.918892E-2	-1.014905E+1	1.967868E-2	2.963800E-2	7.459952E-2	3.164702E-2
10/19/2017  17:43:20.722206	3.406874E+0	1.319332E-2	2.664372E-2	-1.013632E+1	1.967868E-2	1.946206E-2	9.239983E-2	3.164702E-2
10/19/2017  17:43:20.723206	-1.247524E+0	5.561801E-3	3.173413E-2	-1.013378E+1	2.477858E-2	1.946206E-2	6.951371E-2	3.673486E-2
10/19/2017  17:43:20.724206	-1.722591E-1	1.573716E-2	1.137250E-2	-1.014651E+1	2.222863E-2	2.709402E-2	6.697081E-2	2.401527E-2
10/19/2017  17:43:20.725206	1.002144E+0	1.828100E-2	1.137250E-2	-1.015160E+1	9.478889E-3	2.455003E-2	7.968532E-2	3.419094E-2
10/19/2017  17:43:20.726206	1.068236E+0	1.064948E-2	1.900811E-2	-1.012869E+1	2.477858E-2	1.691808E-2	7.205661E-2	4.182269E-2
10/19/2017  17:43:20.727206	-1.973920E-2	1.064948E-2	1.137250E-2	-1.013632E+1	2.987847E-2	2.455003E-2	6.697081E-2	3.927877E-2
10/19/2017  17:43:20.728206	-1.305990E+0	1.319332E-2	1.646291E-2	-1.013887E+1	1.457878E-2	2.709402E-2	7.205661E-2	3.419094E-2
10/19/2017  17:43:20.729206	2.278227E+0	1.319332E-2	1.391770E-2	-1.013632E+1	2.477858E-2	6.742135E-3	7.459952E-2	3.164702E-2
10/19/2017  17:43:20.730206	2.410411E+0	2.845637E-2	1.900811E-2	-1.014651E+1	1.457878E-2	2.200605E-2	7.205661E-2	3.673486E-2
10/19/2017  17:43:20.731206	-4.391688E-1	1.828100E-2	2.155331E-2	-1.013378E+1	2.222863E-2	2.963800E-2	7.459952E-2	2.147136E-2
10/19/2017  17:43:20.732206	-2.416843E+0	1.319332E-2	2.155331E-2	-1.013123E+1	2.732853E-2	1.183011E-2	8.477112E-2	3.164702E-2
10/19/2017  17:43:20.733206	-1.804222E+0	5.561801E-3	8.827299E-3	-1.013378E+1	2.987847E-2	1.437409E-2	6.697081E-2	2.910311E-2
10/19/2017  17:43:20.734206	-1.468391E-1	1.828100E-2	1.646291E-2	-1.013887E+1	1.457878E-2	2.963800E-2	7.205661E-2	2.147136E-2
10/19/2017  17:43:20.735206	-4.671308E-1	1.319332E-2	2.664372E-2	-1.012869E+1	1.712873E-2	2.200605E-2	7.968532E-2	3.164702E-2
								
10/19/2017  17:43:20.736206	-6.552386E-1	1.064948E-2	1.646291E-2	-1.013123E+1	2.222863E-2	1.183011E-2	7.459952E-2	2.655919E-2
10/19/2017  17:43:20.737206	8.521660E-1	1.064948E-2	1.137250E-2	-1.014396E+1	2.222863E-2	2.200605E-2	6.442791E-2	2.655919E-2
10/19/2017  17:43:20.738206	9.589299E-1	1.319332E-2	2.918892E-2	-1.014396E+1	1.202884E-2	2.200605E-2	8.222822E-2	2.910311E-2
10/19/2017  17:43:20.739206	1.299558E+0	8.105642E-3	1.900811E-2	-1.012869E+1	2.477858E-2	1.183011E-2	7.968532E-2	3.164702E-2
10/19/2017  17:43:20.740206	9.970599E-1	1.828100E-2	1.900811E-2	-1.013887E+1	2.222863E-2	2.455003E-2	7.205661E-2	3.419094E-2
10/19/2017  17:43:20.741206	-1.527144E+0	1.828100E-2	1.900811E-2	-1.014142E+1	2.477858E-2	2.709402E-2	8.477112E-2	3.164702E-2
10/19/2017  17:43:20.742206	-4.773275E+0	4.741205E-4	1.137250E-2	-1.014396E+1	1.457878E-2	6.742135E-3	7.459952E-2	3.673486E-2
10/19/2017  17:43:20.743206	-2.935411E+0	1.319332E-2	1.137250E-2	-1.014396E+1	2.987847E-2	2.709402E-2	6.188501E-2	2.910311E-2
10/19/2017  17:43:20.744206	2.115826E-1	1.828100E-2	3.173413E-2	-1.014396E+1	1.967868E-2	2.963800E-2	8.222822E-2	3.673486E-2
10/19/2017  17:43:20.745206	4.977828E+0	4.741205E-4	1.900811E-2	-1.012105E+1	1.967868E-2	1.183011E-2	7.459952E-2	3.164702E-2
10/19/2017  17:43:20.746206	4.632117E+0	1.064948E-2	1.137250E-2	-1.014142E+1	2.477858E-2	9.286120E-3	6.951371E-2	3.164702E-2
10/19/2017  17:43:20.747206	-9.119804E-1	1.064948E-2	1.900811E-2	-1.014651E+1	2.222863E-2	2.709402E-2	7.205661E-2	3.164702E-2
10/19/2017  17:43:20.748206	-2.366003E+0	1.319332E-2	2.664372E-2	-1.013887E+1	2.222863E-2	1.946206E-2	7.205661E-2	2.910311E-2
10/19/2017  17:43:20.749206	-2.281830E-1	1.828100E-2	1.646291E-2	-1.013378E+1	2.732853E-2	2.200605E-2	7.714242E-2	2.910311E-2
10/19/2017  17:43:20.750206	9.767239E-1	1.319332E-2	1.391770E-2	-1.013632E+1	2.222863E-2	1.946206E-2	7.205661E-2	1.892744E-2
10/19/2017  17:43:20.751206	2.573385E-1	3.017961E-3	2.664372E-2	-1.014905E+1	9.478889E-3	2.455003E-2	8.222822E-2	3.164702E-2
10/19/2017  17:43:20.752206	4.352784E-1	5.561801E-3	1.900811E-2	-1.012614E+1	1.967868E-2	1.691808E-2	7.459952E-2	3.673486E-2
10/19/2017  17:43:20.753206	9.030060E-1	8.105642E-3	1.137250E-2	-1.013378E+1	2.732853E-2	1.946206E-2	7.205661E-2	2.655919E-2
10/19/2017  17:43:20.754206	7.072721E-1	1.828100E-2	1.900811E-2	-1.014905E+1	1.457878E-2	2.709402E-2	8.222822E-2	2.655919E-2
10/19/2017  17:43:20.755206	1.937886E-1	8.105642E-3	2.155331E-2	-1.012869E+1	1.457878E-2	1.946206E-2	6.951371E-2	3.673486E-2
10/19/2017  17:43:20.756206	8.222774E-3	8.105642E-3	8.827299E-3	-1.013887E+1	2.732853E-2	1.946206E-2	7.459952E-2	3.164702E-2
10/19/2017  17:43:20.757206	4.381074E-2	1.573716E-2	1.900811E-2	-1.014142E+1	2.222863E-2	1.946206E-2	7.205661E-2	4.182269E-2
10/19/2017  17:43:20.758206	1.251547E-1	1.573716E-2	1.900811E-2	-1.011850E+1	2.222863E-2	1.691808E-2	7.205661E-2	3.927877E-2
10/19/2017  17:43:20.759206	-9.571210E-3	1.064948E-2	6.282096E-3	-1.014142E+1	2.732853E-2	1.946206E-2	6.951371E-2	1.638352E-2
10/19/2017  17:43:20.760206	6.160473E-2	1.828100E-2	1.646291E-2	-1.012614E+1	1.967868E-2	1.946206E-2	7.205661E-2	3.164702E-2
10/19/2017  17:43:20.761206	-4.086648E-1	1.064948E-2	1.646291E-2	-1.013632E+1	2.477858E-2	2.200605E-2	7.459952E-2	3.927877E-2
10/19/2017  17:43:20.762206	-3.244919E-2	1.319332E-2	1.900811E-2	-1.013123E+1	2.987847E-2	1.437409E-2	5.679920E-2	3.419094E-2
10/19/2017  17:43:20.763206	3.742417E+0	2.082484E-2	6.282096E-3	-1.013632E+1	2.477858E-2	2.455003E-2	7.459952E-2	2.147136E-2
10/19/2017  17:43:20.764206	2.252807E+0	1.064948E-2	2.664372E-2	-1.013887E+1	2.222863E-2	2.455003E-2	8.222822E-2	3.164702E-2
10/19/2017  17:43:20.765206	2.903845E-1	1.319332E-2	2.155331E-2	-1.013378E+1	2.987847E-2	2.963800E-2	6.951371E-2	3.164702E-2
10/19/2017  17:43:20.766206	-1.719720E-2	2.591253E-2	1.646291E-2	-1.014142E+1	2.477858E-2	2.709402E-2	7.205661E-2	2.401527E-2
10/19/2017  17:43:20.767206	2.989986E+0	5.561801E-3	2.155331E-2	-1.012869E+1	1.712873E-2	9.286120E-3	8.222822E-2	3.164702E-2
10/19/2017  17:43:20.768206	-3.352298E+0	-2.069720E-3	1.137250E-2	-1.014142E+1	2.732853E-2	1.946206E-2	6.951371E-2	2.910311E-2
								
10/19/2017  17:43:20.769206	-2.322789E+0	2.082484E-2	1.900811E-2	-1.014651E+1	2.222863E-2	2.200605E-2	7.459952E-2	2.147136E-2
10/19/2017  17:43:20.770206	2.446286E-1	2.845637E-2	1.646291E-2	-1.014396E+1	1.967868E-2	1.946206E-2	8.222822E-2	3.164702E-2
10/19/2017  17:43:20.771206	-1.120424E+0	1.573716E-2	1.900811E-2	-1.013632E+1	2.222863E-2	4.198150E-3	7.459952E-2	3.164702E-2
10/19/2017  17:43:20.772206	2.395446E-1	1.319332E-2	1.900811E-2	-1.012869E+1	1.712873E-2	1.946206E-2	7.205661E-2	2.401527E-2
10/19/2017  17:43:20.773206	1.149580E+0	1.319332E-2	1.900811E-2	-1.013123E+1	1.457878E-2	2.200605E-2	8.477112E-2	3.164702E-2
10/19/2017  17:43:20.774206	-3.171816E+0	8.105642E-3	1.646291E-2	-1.013378E+1	2.477858E-2	1.437409E-2	7.459952E-2	3.927877E-2
10/19/2017  17:43:20.775206	-4.808863E+0	1.064948E-2	1.900811E-2	-1.013887E+1	2.732853E-2	2.200605E-2	6.951371E-2	3.164702E-2
10/19/2017  17:43:20.776206	-2.462599E+0	1.828100E-2	1.646291E-2	-1.014651E+1	2.222863E-2	2.709402E-2	7.459952E-2	2.147136E-2
10/19/2017  17:43:20.777206	-4.772988E-1	1.573716E-2	1.137250E-2	-1.014142E+1	1.457878E-2	1.946206E-2	8.222822E-2	3.164702E-2
10/19/2017  17:43:20.778206	-4.925508E-1	8.105642E-3	1.900811E-2	-1.013632E+1	2.477858E-2	1.946206E-2	7.205661E-2	4.945444E-2
10/19/2017  17:43:20.779206	8.194071E-2	1.064948E-2	1.391770E-2	-1.011850E+1	2.987847E-2	2.709402E-2	6.697081E-2	2.910311E-2
10/19/2017  17:43:20.780206	8.419980E-1	8.105642E-3	1.391770E-2	-1.013887E+1	2.222863E-2	2.709402E-2	7.459952E-2	2.401527E-2
10/19/2017  17:43:20.781206	2.011317E+0	1.064948E-2	2.155331E-2	-1.013123E+1	2.477858E-2	2.455003E-2	7.459952E-2	3.164702E-2
10/19/2017  17:43:20.782206	2.705282E+0	1.064948E-2	1.137250E-2	-1.013632E+1	2.222863E-2	1.946206E-2	7.459952E-2	3.419094E-2
10/19/2017  17:43:20.783206	2.275685E+0	2.082484E-2	1.900811E-2	-1.013887E+1	2.222863E-2	2.709402E-2	8.731403E-2	2.401527E-2
10/19/2017  17:43:20.784206	6.615162E-1	1.828100E-2	3.427933E-2	-1.013632E+1	1.967868E-2	9.286120E-3	7.968532E-2	3.164702E-2
10/19/2017  17:43:20.785206	-3.972546E+0	5.561801E-3	1.900811E-2	-1.014396E+1	1.967868E-2	1.437409E-2	7.205661E-2	3.673486E-2
10/19/2017  17:43:20.786206	-1.222104E+0	2.082484E-2	1.900811E-2	-1.014142E+1	2.222863E-2	2.709402E-2	6.951371E-2	2.401527E-2
10/19/2017  17:43:20.787206	5.903402E-1	2.082484E-2	1.646291E-2	-1.014396E+1	2.222863E-2	2.455003E-2	7.459952E-2	2.147136E-2
10/19/2017  17:43:20.788206	1.175287E-1	1.064948E-2	2.409852E-2	-1.013887E+1	2.222863E-2	1.946206E-2	7.714242E-2	3.673486E-2
10/19/2017  17:43:20.789206	1.228382E+0	-4.613560E-3	1.391770E-2	-1.012359E+1	1.712873E-2	1.691808E-2	7.205661E-2	3.164702E-2
10/19/2017  17:43:20.790206	2.001149E+0	1.828100E-2	1.137250E-2	-1.014142E+1	2.987847E-2	3.472597E-2	6.697081E-2	2.401527E-2
10/19/2017  17:43:20.791206	1.157206E+0	2.082484E-2	1.900811E-2	-1.014905E+1	2.222863E-2	2.963800E-2	7.459952E-2	3.164702E-2
10/19/2017  17:43:20.792206	-1.506808E+0	1.319332E-2	1.391770E-2	-1.012869E+1	1.712873E-2	1.691808E-2	7.205661E-2	3.164702E-2
10/19/2017  17:43:20.793206	7.225241E-1	5.561801E-3	1.646291E-2	-1.014905E+1	1.712873E-2	1.183011E-2	7.205661E-2	2.910311E-2
10/19/2017  17:43:20.794206	1.200420E+0	1.573716E-2	1.137250E-2	-1.014396E+1	2.987847E-2	2.963800E-2	6.697081E-2	3.164702E-2
10/19/2017  17:43:20.795206	1.945225E+0	1.828100E-2	2.664372E-2	-1.013887E+1	1.967868E-2	2.709402E-2	6.951371E-2	3.164702E-2
10/19/2017  17:43:20.796206	-3.148938E+0	8.105642E-3	3.173413E-2	-1.013123E+1	1.712873E-2	1.691808E-2	7.968532E-2	3.164702E-2
10/19/2017  17:43:20.797206	-4.846993E+0	8.105642E-3	1.137250E-2	-1.013887E+1	1.712873E-2	1.691808E-2	7.968532E-2	3.673486E-2
10/19/2017  17:43:20.798206	1.790163E+0	1.828100E-2	1.191689E-3	-1.015669E+1	2.987847E-2	1.691808E-2	6.442791E-2	2.401527E-2
10/19/2017  17:43:20.799206	4.998164E+0	1.573716E-2	1.900811E-2	-1.013632E+1	1.457878E-2	2.709402E-2	8.222822E-2	1.129569E-2
10/19/2017  17:43:20.800206	4.967660E+0	1.319332E-2	2.155331E-2	-1.013378E+1	1.457878E-2	1.946206E-2	8.222822E-2	3.164702E-2
10/19/2017  17:43:20.801206	-8.585984E-1	1.064948E-2	2.409852E-2	-1.012869E+1	2.222863E-2	1.437409E-2	7.459952E-2	2.910311E-2
								
10/19/2017  17:43:20.802206	-4.946131E+0	1.319332E-2	1.900811E-2	-1.014905E+1	2.222863E-2	2.963800E-2	7.205661E-2	3.164702E-2
10/19/2017  17:43:20.803206	-4.452983E+0	1.573716E-2	1.137250E-2	-1.015669E+1	1.712873E-2	2.709402E-2	7.459952E-2	3.164702E-2
10/19/2017  17:43:20.804206	-3.006586E+0	1.828100E-2	2.155331E-2	-1.014651E+1	1.457878E-2	1.437409E-2	8.222822E-2	3.419094E-2
10/19/2017  17:43:20.805206	-1.875398E+0	5.561801E-3	6.282096E-3	-1.013123E+1	2.732853E-2	2.200605E-2	6.951371E-2	4.182269E-2
10/19/2017  17:43:20.806206	7.454021E-1	1.064948E-2	1.137250E-2	-1.014142E+1	2.222863E-2	2.709402E-2	6.697081E-2	3.164702E-2
10/19/2017  17:43:20.807206	1.703735E+0	1.064948E-2	1.646291E-2	-1.012869E+1	2.732853E-2	1.691808E-2	7.205661E-2	2.655919E-2
10/19/2017  17:43:20.808206	4.855812E+0	5.561801E-3	2.664372E-2	-1.013378E+1	1.457878E-2	1.691808E-2	7.968532E-2	3.927877E-2
10/19/2017  17:43:20.809206	5.089963E-1	8.105642E-3	1.900811E-2	-1.012869E+1	2.222863E-2	1.183011E-2	6.697081E-2	3.927877E-2
10/19/2017  17:43:20.810206	-2.162643E+0	8.105642E-3	1.137250E-2	-1.013378E+1	2.732853E-2	1.691808E-2	6.697081E-2	2.401527E-2
10/19/2017  17:43:20.811206	-1.694916E+0	1.573716E-2	1.646291E-2	-1.014651E+1	1.712873E-2	1.437409E-2	7.205661E-2	2.147136E-2
10/19/2017  17:43:20.812206	-1.443258E+0	1.064948E-2	2.664372E-2	-1.014651E+1	1.967868E-2	1.946206E-2	7.968532E-2	3.673486E-2
10/19/2017  17:43:20.813206	-7.772545E-1	5.561801E-3	2.155331E-2	-1.013887E+1	2.222863E-2	1.946206E-2	7.459952E-2	3.164702E-2
10/19/2017  17:43:20.814206	1.042816E+0	1.828100E-2	1.137250E-2	-1.013887E+1	1.712873E-2	1.946206E-2	7.459952E-2	3.927877E-2
10/19/2017  17:43:20.815206	1.175000E+0	2.082484E-2	2.155331E-2	-1.014651E+1	2.222863E-2	2.709402E-2	6.697081E-2	2.147136E-2
10/19/2017  17:43:20.816206	5.397873E-2	1.064948E-2	2.155331E-2	-1.014142E+1	1.202884E-2	2.200605E-2	7.205661E-2	2.147136E-2
10/19/2017  17:43:20.817206	1.319894E+0	1.064948E-2	1.646291E-2	-1.013887E+1	2.477858E-2	1.437409E-2	6.951371E-2	3.673486E-2
10/19/2017  17:43:20.818206	2.473961E+0	2.082484E-2	1.391770E-2	-1.013887E+1	2.732853E-2	2.455003E-2	6.697081E-2	1.892744E-2
10/19/2017  17:43:20.819206	1.032648E+0	1.828100E-2	2.155331E-2	-1.014142E+1	2.222863E-2	2.709402E-2	7.968532E-2	2.401527E-2
10/19/2017  17:43:20.820206	-5.078028E-1	5.561801E-3	2.664372E-2	-1.013378E+1	1.457878E-2	2.200605E-2	7.968532E-2	1.638352E-2
10/19/2017  17:43:20.821206	-2.297369E+0	1.064948E-2	1.900811E-2	-1.013378E+1	2.477858E-2	6.742135E-3	7.714242E-2	3.927877E-2
10/19/2017  17:43:20.822206	6.818522E-1	2.082484E-2	2.155331E-2	-1.013632E+1	2.987847E-2	2.200605E-2	6.951371E-2	3.164702E-2
10/19/2017  17:43:20.823206	-7.086206E-1	1.828100E-2	1.137250E-2	-1.014142E+1	2.732853E-2	3.472597E-2	8.222822E-2	2.147136E-2
10/19/2017  17:43:20.824206	-1.333952E+0	5.561801E-3	2.409852E-2	-1.013123E+1	2.477858E-2	1.691808E-2	7.459952E-2	2.655919E-2
10/19/2017  17:43:20.825206	-4.819031E+0	5.561801E-3	1.900811E-2	-1.014651E+1	2.222863E-2	2.200605E-2	6.697081E-2	3.673486E-2
10/19/2017  17:43:20.826206	-4.544495E+0	1.573716E-2	8.827299E-3	-1.014142E+1	1.712873E-2	2.963800E-2	7.459952E-2	3.673486E-2
10/19/2017  17:43:20.827206	-1.649160E+0	2.082484E-2	1.646291E-2	-1.014142E+1	2.222863E-2	2.709402E-2	7.459952E-2	2.147136E-2
10/19/2017  17:43:20.828206	-5.255967E-1	1.064948E-2	1.900811E-2	-1.013632E+1	2.477858E-2	9.286120E-3	7.714242E-2	3.164702E-2
10/19/2017  17:43:20.829206	3.905105E+0	-2.069720E-3	1.646291E-2	-1.013123E+1	2.477858E-2	1.946206E-2	7.205661E-2	3.927877E-2
10/19/2017  17:43:20.830206	9.210870E-2	1.064948E-2	1.391770E-2	-1.012614E+1	2.222863E-2	2.963800E-2	7.205661E-2	3.419094E-2
10/19/2017  17:43:20.831206	4.530724E-1	1.828100E-2	1.137250E-2	-1.014396E+1	2.477858E-2	2.200605E-2	7.714242E-2	2.655919E-2
10/19/2017  17:43:20.832206	3.254354E+0	1.064948E-2	2.155331E-2	-1.014142E+1	2.222863E-2	1.946206E-2	7.205661E-2	2.910311E-2
10/19/2017  17:43:20.833206	1.304642E+0	1.064948E-2	2.155331E-2	-1.013632E+1	1.202884E-2	2.200605E-2	7.205661E-2	3.164702E-2
10/19/2017  17:43:20.834206	9.868919E-1	1.064948E-2	1.391770E-2	-1.013887E+1	2.477858E-2	2.200605E-2	7.459952E-2	3.164702E-2
								
10/19/2017  17:43:20.835206	-1.074668E+0	1.319332E-2	1.900811E-2	-1.013887E+1	2.732853E-2	2.200605E-2	7.714242E-2	2.910311E-2
10/19/2017  17:43:20.836206	1.330062E+0	1.319332E-2	2.409852E-2	-1.014142E+1	1.457878E-2	1.946206E-2	7.968532E-2	3.164702E-2
10/19/2017  17:43:20.837206	4.240649E+0	5.561801E-3	1.900811E-2	-1.012105E+1	1.202884E-2	1.691808E-2	7.459952E-2	2.401527E-2
10/19/2017  17:43:20.838206	8.826700E-1	1.573716E-2	3.736893E-3	-1.013887E+1	2.732853E-2	1.946206E-2	6.951371E-2	2.401527E-2
10/19/2017  17:43:20.839206	-4.679221E+0	1.573716E-2	2.155331E-2	-1.014396E+1	1.457878E-2	2.963800E-2	7.205661E-2	4.945444E-2
10/19/2017  17:43:20.840206	-3.583620E+0	1.319332E-2	2.664372E-2	-1.012614E+1	1.457878E-2	1.691808E-2	8.477112E-2	3.673486E-2
10/19/2017  17:43:20.841206	-4.440273E+0	1.064948E-2	8.827299E-3	-1.014142E+1	2.477858E-2	1.437409E-2	6.951371E-2	3.419094E-2
10/19/2017  17:43:20.842206	-2.442263E+0	2.082484E-2	1.137250E-2	-1.015669E+1	2.732853E-2	1.946206E-2	6.188501E-2	2.655919E-2
10/19/2017  17:43:20.843206	1.472413E+0	1.064948E-2	2.918892E-2	-1.013887E+1	1.712873E-2	2.200605E-2	7.968532E-2	3.419094E-2
10/19/2017  17:43:20.844206	3.305194E+0	4.741205E-4	2.155331E-2	-1.012359E+1	1.967868E-2	1.691808E-2	7.714242E-2	2.910311E-2
10/19/2017  17:43:20.845206	2.377365E+0	2.082484E-2	1.191689E-3	-1.012359E+1	2.987847E-2	1.437409E-2	7.205661E-2	2.401527E-2
10/19/2017  17:43:20.846206	3.638195E+0	1.573716E-2	1.900811E-2	-1.013887E+1	2.222863E-2	2.709402E-2	8.985693E-2	2.147136E-2
10/19/2017  17:43:20.847206	2.405327E+0	8.105642E-3	1.646291E-2	-1.012869E+1	9.478889E-3	2.455003E-2	8.222822E-2	3.927877E-2
10/19/2017  17:43:20.848206	3.925441E+0	1.319332E-2	1.137250E-2	-1.013123E+1	2.732853E-2	1.691808E-2	7.714242E-2	4.182269E-2
10/19/2017  17:43:20.849206	2.573385E-1	1.064948E-2	1.137250E-2	-1.014905E+1	4.007827E-2	3.472597E-2	6.697081E-2	2.147136E-2
10/19/2017  17:43:20.850206	-3.164190E+0	2.082484E-2	2.409852E-2	-1.014396E+1	1.202884E-2	2.963800E-2	8.222822E-2	2.401527E-2
10/19/2017  17:43:20.851206	-8.357205E-1	8.105642E-3	2.155331E-2	-1.013632E+1	1.712873E-2	1.946206E-2	8.477112E-2	3.673486E-2
10/19/2017  17:43:20.852206	-5.993147E-1	1.573716E-2	1.137250E-2	-1.013887E+1	2.732853E-2	1.691808E-2	7.205661E-2	2.655919E-2
10/19/2017  17:43:20.853206	5.140803E-1	1.828100E-2	2.155331E-2	-1.014396E+1	1.712873E-2	2.963800E-2	7.205661E-2	3.164702E-2
10/19/2017  17:43:20.854206	1.230924E+0	1.319332E-2	2.155331E-2	-1.013378E+1	6.928941E-3	2.200605E-2	7.968532E-2	2.655919E-2
10/19/2017  17:43:20.855206	1.190252E+0	5.561801E-3	1.646291E-2	-1.012869E+1	1.712873E-2	1.437409E-2	7.459952E-2	3.164702E-2
10/19/2017  17:43:20.856206	-5.738947E-1	1.064948E-2	1.900811E-2	-1.013632E+1	2.477858E-2	2.200605E-2	6.188501E-2	3.419094E-2
10/19/2017  17:43:20.857206	9.411359E-1	1.573716E-2	2.664372E-2	-1.013632E+1	2.222863E-2	2.200605E-2	7.968532E-2	2.910311E-2
10/19/2017  17:43:20.858206	1.759659E+0	5.561801E-3	2.664372E-2	-1.013123E+1	1.457878E-2	1.437409E-2	9.239983E-2	3.164702E-2
10/19/2017  17:43:20.859206	-4.061229E-1	5.561801E-3	3.736893E-3	-1.012105E+1	3.242842E-2	1.691808E-2	6.697081E-2	3.673486E-2
10/19/2017  17:43:20.860206	9.919759E-1	1.828100E-2	1.391770E-2	-1.014142E+1	2.477858E-2	2.963800E-2	6.951371E-2	3.419094E-2
10/19/2017  17:43:20.861206	-1.842352E+0	1.828100E-2	2.155331E-2	-1.014396E+1	1.457878E-2	2.200605E-2	7.968532E-2	3.164702E-2
10/19/2017  17:43:20.862206	-2.368545E+0	1.573716E-2	1.137250E-2	-1.013887E+1	2.222863E-2	2.200605E-2	7.459952E-2	3.673486E-2
10/19/2017  17:43:20.863206	-2.917617E+0	1.573716E-2	1.391770E-2	-1.015924E+1	1.967868E-2	1.183011E-2	7.205661E-2	3.164702E-2
10/19/2017  17:43:20.864206	-1.905901E+0	8.105642E-3	2.155331E-2	-1.014142E+1	2.477858E-2	1.437409E-2	7.459952E-2	2.910311E-2
10/19/2017  17:43:20.865206	-2.510610E-1	2.082484E-2	2.155331E-2	-1.014142E+1	1.712873E-2	2.963800E-2	9.239983E-2	2.910311E-2
10/19/2017  17:43:20.866206	1.569009E+0	1.319332E-2	2.664372E-2	-1.013123E+1	1.457878E-2	1.946206E-2	7.968532E-2	3.673486E-2
10/19/2017  17:43:20.867206	2.974734E+0	8.105642E-3	8.827299E-3	-1.013378E+1	2.987847E-2	1.691808E-2	6.697081E-2	2.655919E-2
								
10/19/2017  17:43:20.868206	1.683399E+0	1.573716E-2	8.827299E-3	-1.013632E+1	1.712873E-2	2.709402E-2	7.459952E-2	2.910311E-2
10/19/2017  17:43:20.869206	-1.534770E+0	1.573716E-2	2.409852E-2	-1.013887E+1	1.967868E-2	1.691808E-2	7.205661E-2	3.164702E-2
10/19/2017  17:43:20.870206	-3.731056E+0	1.064948E-2	1.391770E-2	-1.014651E+1	2.987847E-2	2.963800E-2	6.951371E-2	3.673486E-2
10/19/2017  17:43:20.871206	-3.830194E+0	1.828100E-2	1.646291E-2	-1.014651E+1	1.712873E-2	2.709402E-2	7.459952E-2	2.147136E-2
10/19/2017  17:43:20.872206	-6.041116E-2	1.319332E-2	1.391770E-2	-1.014142E+1	1.967868E-2	2.200605E-2	8.222822E-2	2.401527E-2
10/19/2017  17:43:20.873206	3.996617E+0	-4.613560E-3	1.137250E-2	-1.013632E+1	3.497837E-2	1.691808E-2	6.951371E-2	3.673486E-2
10/19/2017  17:43:20.874206	3.162842E+0	1.319332E-2	1.900811E-2	-1.013378E+1	2.222863E-2	1.946206E-2	7.205661E-2	2.401527E-2
10/19/2017  17:43:20.875206	3.617860E+0	1.064948E-2	2.155331E-2	-1.011596E+1	3.497837E-2	2.200605E-2	8.731403E-2	3.419094E-2
10/19/2017  17:43:20.876206	-7.162466E-1	8.105642E-3	1.900811E-2	-1.013378E+1	2.222863E-2	1.691808E-2	7.205661E-2	3.927877E-2
10/19/2017  17:43:20.877206	-3.464146E+0	1.064948E-2	1.391770E-2	-1.014396E+1	1.967868E-2	1.946206E-2	6.442791E-2	3.164702E-2
10/19/2017  17:43:20.878206	-3.578249E-1	2.082484E-2	1.900811E-2	-1.014651E+1	2.222863E-2	2.709402E-2	7.459952E-2	3.419094E-2
10/19/2017  17:43:20.879206	9.210870E-2	2.082484E-2	2.155331E-2	-1.013887E+1	1.712873E-2	1.691808E-2	8.222822E-2	2.401527E-2
10/19/2017  17:43:20.880206	-6.549516E-2	5.561801E-3	2.155331E-2	-1.013123E+1	2.222863E-2	1.437409E-2	6.951371E-2	3.419094E-2
10/19/2017  17:43:20.881206	-1.773431E-1	8.105642E-3	8.827299E-3	-1.013378E+1	2.732853E-2	1.946206E-2	6.697081E-2	1.638352E-2
10/19/2017  17:43:20.882206	-2.764810E-1	2.082484E-2	1.646291E-2	-1.015415E+1	2.222863E-2	1.946206E-2	7.205661E-2	2.655919E-2
10/19/2017  17:43:20.883206	9.210870E-2	1.828100E-2	1.646291E-2	-1.013887E+1	2.222863E-2	2.200605E-2	7.714242E-2	3.164702E-2
10/19/2017  17:43:20.884206	2.191799E+0	1.064948E-2	1.391770E-2	-1.013123E+1	1.712873E-2	1.691808E-2	8.222822E-2	3.419094E-2
10/19/2017  17:43:20.885206	9.690979E-1	1.319332E-2	-1.353514E-3	-1.014396E+1	2.732853E-2	1.437409E-2	6.697081E-2	2.401527E-2
10/19/2017  17:43:20.886206	-1.000950E+0	2.082484E-2	1.646291E-2	-1.014651E+1	1.712873E-2	2.963800E-2	8.985693E-2	2.147136E-2
10/19/2017  17:43:20.887206	-6.323606E-1	1.828100E-2	3.936974E-2	-1.014142E+1	1.202884E-2	6.742135E-3	7.968532E-2	3.673486E-2
10/19/2017  17:43:20.888206	-3.273209E-1	1.064948E-2	1.137250E-2	-1.013378E+1	2.222863E-2	1.437409E-2	7.459952E-2	3.673486E-2
10/19/2017  17:43:20.889206	9.973469E-2	1.828100E-2	1.137250E-2	-1.013887E+1	3.752832E-2	1.183011E-2	6.951371E-2	2.147136E-2
10/19/2017  17:43:20.890206	3.109460E+0	1.573716E-2	2.664372E-2	-1.014396E+1	9.478889E-3	2.709402E-2	7.968532E-2	3.419094E-2
10/19/2017  17:43:20.891206	3.981365E+0	8.105642E-3	2.664372E-2	-1.013123E+1	1.712873E-2	9.286120E-3	8.222822E-2	3.164702E-2
10/19/2017  17:43:20.892206	-9.272324E-1	-2.069720E-3	8.827299E-3	-1.013632E+1	3.242842E-2	1.946206E-2	6.951371E-2	3.673486E-2
10/19/2017  17:43:20.893206	-3.420932E+0	1.828100E-2	1.646291E-2	-1.015160E+1	2.222863E-2	2.709402E-2	7.205661E-2	2.655919E-2
10/19/2017  17:43:20.894206	-2.871861E+0	5.561801E-3	2.409852E-2	-1.014142E+1	6.928941E-3	2.200605E-2	7.714242E-2	2.910311E-2
10/19/2017  17:43:20.895206	8.114940E-1	8.105642E-3	1.646291E-2	-1.012869E+1	2.477858E-2	1.437409E-2	7.459952E-2	4.182269E-2
10/19/2017  17:43:20.896206	3.401790E+0	1.573716E-2	1.391770E-2	-1.012869E+1	4.517816E-2	1.946206E-2	6.697081E-2	4.182269E-2
10/19/2017  17:43:20.897206	-3.146109E-1	2.082484E-2	2.664372E-2	-1.013123E+1	1.967868E-2	3.218199E-2	7.205661E-2	2.147136E-2
10/19/2017  17:43:20.898206	-4.951215E+0	1.064948E-2	1.900811E-2	-1.014651E+1	2.477858E-2	1.946206E-2	7.459952E-2	2.147136E-2
10/19/2017  17:43:20.899206	-4.951215E+0	1.064948E-2	6.282096E-3	-1.013887E+1	2.222863E-2	1.946206E-2	6.951371E-2	3.673486E-2
10/19/2017  17:43:20.900206	-2.386339E+0	5.561801E-3	1.137250E-2	-1.013887E+1	1.712873E-2	2.200605E-2	7.459952E-2	2.910311E-2
								
10/19/2017  17:43:20.901206	3.539345E-1	1.319332E-2	1.900811E-2	-1.014396E+1	1.967868E-2	1.691808E-2	7.205661E-2	2.401527E-2
10/19/2017  17:43:20.902206	5.021042E+0	1.319332E-2	2.155331E-2	-1.012614E+1	2.477858E-2	1.437409E-2	7.205661E-2	3.164702E-2
10/19/2017  17:43:20.903206	4.985454E+0	8.105642E-3	1.900811E-2	-1.014142E+1	1.967868E-2	9.286120E-3	7.205661E-2	3.673486E-2
10/19/2017  17:43:20.904206	-7.721705E-1	5.561801E-3	1.900811E-2	-1.014142E+1	2.477858E-2	2.200605E-2	6.951371E-2	2.910311E-2
10/19/2017  17:43:20.905206	-3.339588E+0	2.336868E-2	1.900811E-2	-1.015160E+1	1.967868E-2	2.963800E-2	8.477112E-2	2.147136E-2
10/19/2017  17:43:20.906206	-1.122966E+0	1.573716E-2	3.173413E-2	-1.014651E+1	2.222863E-2	2.455003E-2	7.714242E-2	3.164702E-2
10/19/2017  17:43:20.907206	-5.103448E-1	5.561801E-3	1.646291E-2	-1.013632E+1	1.967868E-2	1.183011E-2	7.205661E-2	3.419094E-2
10/19/2017  17:43:20.908206	-8.074715E-2	1.064948E-2	1.391770E-2	-1.013632E+1	1.967868E-2	1.183011E-2	6.697081E-2	2.401527E-2
10/19/2017  17:43:20.909206	1.836206E-1	1.319332E-2	1.900811E-2	-1.014905E+1	1.967868E-2	2.455003E-2	7.459952E-2	2.910311E-2
10/19/2017  17:43:20.910206	1.584877E-2	1.319332E-2	2.664372E-2	-1.013378E+1	1.712873E-2	1.183011E-2	7.968532E-2	3.927877E-2
10/19/2017  17:43:20.911206	-5.230547E-1	-2.069720E-3	1.900811E-2	-1.012614E+1	1.967868E-2	1.437409E-2	7.459952E-2	3.419094E-2
10/19/2017  17:43:20.912206	-9.602784E-1	1.319332E-2	1.137250E-2	-1.013378E+1	2.987847E-2	1.654165E-3	6.697081E-2	2.910311E-2
10/19/2017  17:43:20.913206	-2.663417E+0	2.591253E-2	1.900811E-2	-1.015924E+1	2.732853E-2	2.455003E-2	7.205661E-2	2.910311E-2
10/19/2017  17:43:20.914206	-4.364013E+0	1.828100E-2	3.173413E-2	-1.014142E+1	1.457878E-2	2.200605E-2	8.222822E-2	3.164702E-2
10/19/2017  17:43:20.915206	-2.815937E+0	1.319332E-2	1.646291E-2	-1.013887E+1	2.732853E-2	1.437409E-2	7.459952E-2	3.419094E-2
10/19/2017  17:43:20.916206	2.288395E+0	1.319332E-2	2.155331E-2	-1.014396E+1	2.477858E-2	1.946206E-2	7.205661E-2	2.910311E-2
10/19/2017  17:43:20.917206	5.003248E+0	1.064948E-2	1.646291E-2	-1.014142E+1	1.457878E-2	2.709402E-2	6.697081E-2	1.892744E-2
10/19/2017  17:43:20.918206	2.011317E+0	1.319332E-2	2.409852E-2	-1.012105E+1	1.202884E-2	2.709402E-2	7.968532E-2	2.655919E-2
10/19/2017  17:43:20.919206	9.665559E-1	8.105642E-3	1.391770E-2	-1.012869E+1	2.477858E-2	1.183011E-2	7.205661E-2	3.673486E-2
10/19/2017  17:43:20.920206	4.169473E+0	1.828100E-2	1.646291E-2	-1.015160E+1	2.987847E-2	2.709402E-2	6.188501E-2	2.910311E-2
10/19/2017  17:43:20.921206	5.005790E+0	1.319332E-2	2.918892E-2	-1.013632E+1	1.967868E-2	2.455003E-2	8.222822E-2	1.129569E-2
10/19/2017  17:43:20.922206	4.982912E+0	8.105642E-3	2.409852E-2	-1.014396E+1	1.712873E-2	1.946206E-2	7.968532E-2	3.419094E-2
10/19/2017  17:43:20.923206	3.991533E+0	5.561801E-3	1.391770E-2	-1.013123E+1	2.732853E-2	1.946206E-2	6.951371E-2	3.927877E-2
10/19/2017  17:43:20.924206	-5.840627E-1	1.064948E-2	1.137250E-2	-1.013378E+1	2.732853E-2	2.963800E-2	7.968532E-2	3.419094E-2
10/19/2017  17:43:20.925206	-4.946131E+0	2.082484E-2	1.137250E-2	-1.015669E+1	1.967868E-2	2.455003E-2	7.205661E-2	2.147136E-2
10/19/2017  17:43:20.926206	-4.897833E+0	1.319332E-2	2.409852E-2	-1.014905E+1	1.457878E-2	2.200605E-2	7.205661E-2	3.419094E-2
10/19/2017  17:43:20.927206	-2.353293E+0	1.064948E-2	3.173413E-2	-1.013887E+1	2.987847E-2	1.946206E-2	7.459952E-2	3.164702E-2
10/19/2017  17:43:20.928206	-1.997413E+0	1.573716E-2	1.646291E-2	-1.013378E+1	2.477858E-2	2.200605E-2	7.205661E-2	3.164702E-2
10/19/2017  17:43:20.929206	-1.603404E+0	1.319332E-2	6.282096E-3	-1.013887E+1	2.222863E-2	1.946206E-2	7.714242E-2	2.147136E-2
10/19/2017  17:43:20.930206	-1.018744E+0	1.573716E-2	1.646291E-2	-1.014651E+1	1.712873E-2	2.200605E-2	7.205661E-2	3.164702E-2
10/19/2017  17:43:20.931206	-8.840184E-1	8.105642E-3	1.900811E-2	-1.013378E+1	2.222863E-2	2.455003E-2	7.459952E-2	3.419094E-2
10/19/2017  17:43:20.932206	-7.848805E-1	2.845637E-2	1.137250E-2	-1.012869E+1	3.497837E-2	1.946206E-2	6.697081E-2	3.164702E-2
10/19/2017  17:43:20.933206	-1.196684E+0	2.082484E-2	1.646291E-2	-1.014651E+1	1.967868E-2	2.455003E-2	7.205661E-2	2.910311E-2
								
10/19/2017  17:43:20.934206	-9.571210E-3	1.319332E-2	2.664372E-2	-1.013887E+1	1.712873E-2	1.946206E-2	7.459952E-2	2.655919E-2
10/19/2017  17:43:20.935206	6.488062E-1	8.105642E-3	1.391770E-2	-1.013378E+1	1.967868E-2	1.437409E-2	7.459952E-2	2.401527E-2
10/19/2017  17:43:20.936206	-4.035809E-1	1.319332E-2	1.646291E-2	-1.012869E+1	4.007827E-2	2.200605E-2	7.714242E-2	3.164702E-2
10/19/2017  17:43:20.937206	-1.239898E+0	1.828100E-2	2.155331E-2	-1.015160E+1	2.222863E-2	2.709402E-2	6.951371E-2	2.147136E-2
10/19/2017  17:43:20.938206	1.431741E+0	8.105642E-3	2.155331E-2	-1.013887E+1	-7.209035E-4	2.200605E-2	7.714242E-2	2.147136E-2
10/19/2017  17:43:20.939206	1.431741E+0	5.561801E-3	1.137250E-2	-1.013887E+1	2.477858E-2	9.286120E-3	7.459952E-2	3.927877E-2
10/19/2017  17:43:20.940206	-9.571210E-3	1.828100E-2	1.646291E-2	-1.013632E+1	2.987847E-2	2.200605E-2	7.205661E-2	3.673486E-2
10/19/2017  17:43:20.941206	3.107205E-1	1.828100E-2	1.900811E-2	-1.012359E+1	1.967868E-2	3.726996E-2	7.968532E-2	2.401527E-2
10/19/2017  17:43:20.942206	-4.007518E-2	1.319332E-2	2.155331E-2	-1.013632E+1	1.457878E-2	1.691808E-2	8.222822E-2	3.164702E-2
10/19/2017  17:43:20.943206	2.014146E-1	8.105642E-3	1.900811E-2	-1.014142E+1	2.477858E-2	6.742135E-3	6.951371E-2	3.927877E-2
10/19/2017  17:43:20.944206	2.522546E-1	1.064948E-2	1.646291E-2	-1.013378E+1	2.732853E-2	2.455003E-2	6.951371E-2	3.164702E-2
10/19/2017  17:43:20.945206	-5.786917E-2	1.319332E-2	1.646291E-2	-1.013887E+1	1.967868E-2	2.963800E-2	7.968532E-2	2.655919E-2
10/19/2017  17:43:20.946206	1.126702E+0	2.082484E-2	1.646291E-2	-1.013632E+1	1.457878E-2	1.691808E-2	7.714242E-2	2.910311E-2
10/19/2017  17:43:20.947206	2.974734E+0	3.017961E-3	1.646291E-2	-1.013378E+1	2.477858E-2	1.437409E-2	6.442791E-2	3.673486E-2
10/19/2017  17:43:20.948206	4.349955E+0	1.573716E-2	1.137250E-2	-1.012614E+1	2.477858E-2	2.709402E-2	6.951371E-2	2.910311E-2
10/19/2017  17:43:20.949206	4.471971E+0	2.845637E-2	1.137250E-2	-1.014142E+1	2.732853E-2	2.709402E-2	7.205661E-2	2.147136E-2
10/19/2017  17:43:20.950206	-1.628824E+0	1.064948E-2	2.409852E-2	-1.014142E+1	2.987847E-2	2.709402E-2	7.714242E-2	2.910311E-2
10/19/2017  17:43:20.951206	-4.946131E+0	-2.069720E-3	1.646291E-2	-1.014142E+1	1.712873E-2	1.691808E-2	6.951371E-2	3.673486E-2
10/19/2017  17:43:20.952206	-4.905459E+0	1.064948E-2	1.137250E-2	-1.014905E+1	2.987847E-2	2.455003E-2	6.442791E-2	2.401527E-2
10/19/2017  17:43:20.953206	5.420423E-1	3.354405E-2	1.646291E-2	-1.014651E+1	2.477858E-2	2.709402E-2	7.714242E-2	2.147136E-2
10/19/2017  17:43:20.954206	4.987996E+0	1.064948E-2	2.409852E-2	-1.013632E+1	1.712873E-2	2.200605E-2	8.222822E-2	3.927877E-2
10/19/2017  17:43:20.955206	1.894385E+0	-4.613560E-3	1.646291E-2	-1.012359E+1	1.457878E-2	1.437409E-2	7.205661E-2	3.164702E-2
10/19/2017  17:43:20.956206	-1.163638E+0	1.064948E-2	6.282096E-3	-1.013887E+1	2.987847E-2	2.200605E-2	6.951371E-2	3.164702E-2
10/19/2017  17:43:20.957206	-4.740229E+0	1.828100E-2	1.646291E-2	-1.015160E+1	2.477858E-2	2.963800E-2	7.205661E-2	2.655919E-2
10/19/2017  17:43:20.958206	-1.822016E+0	1.064948E-2	3.173413E-2	-1.013632E+1	1.202884E-2	2.709402E-2	7.968532E-2	3.673486E-2
10/19/2017  17:43:20.959206	-6.832006E-1	8.105642E-3	1.900811E-2	-1.013123E+1	1.967868E-2	1.946206E-2	7.968532E-2	2.401527E-2
10/19/2017  17:43:20.960206	6.767682E-1	1.319332E-2	1.391770E-2	-1.014905E+1	2.987847E-2	1.946206E-2	6.697081E-2	2.655919E-2
10/19/2017  17:43:20.961206	4.751590E+0	1.573716E-2	1.900811E-2	-1.013123E+1	1.967868E-2	2.963800E-2	7.459952E-2	2.910311E-2
10/19/2017  17:43:20.962206	2.326525E+0	1.319332E-2	2.409852E-2	-1.010832E+1	2.477858E-2	2.200605E-2	8.477112E-2	3.164702E-2
10/19/2017  17:43:20.963206	-4.722435E+0	1.064948E-2	1.900811E-2	-1.013378E+1	2.477858E-2	1.437409E-2	7.205661E-2	2.910311E-2
10/19/2017  17:43:20.964206	-4.905459E+0	8.105642E-3	1.646291E-2	-1.014905E+1	2.222863E-2	2.455003E-2	6.188501E-2	2.655919E-2
10/19/2017  17:43:20.965206	-1.768634E+0	5.561801E-3	6.282096E-3	-1.014142E+1	1.967868E-2	2.455003E-2	7.205661E-2	3.164702E-2
10/19/2017  17:43:20.966206	6.030502E-1	1.319332E-2	1.900811E-2	-1.013632E+1	2.477858E-2	2.200605E-2	8.985693E-2	3.673486E-2
								
10/19/2017  17:43:20.967206	8.445400E-1	1.064948E-2	1.900811E-2	-1.013887E+1	2.477858E-2	2.455003E-2	7.714242E-2	3.164702E-2
10/19/2017  17:43:20.968206	1.490207E+0	1.319332E-2	1.646291E-2	-1.013632E+1	1.967868E-2	2.200605E-2	6.951371E-2	2.147136E-2
10/19/2017  17:43:20.969206	2.112997E+0	1.573716E-2	6.282096E-3	-1.013378E+1	2.477858E-2	2.963800E-2	7.205661E-2	2.910311E-2
10/19/2017  17:43:20.970206	2.412953E+0	1.064948E-2	1.900811E-2	-1.013632E+1	1.712873E-2	1.437409E-2	7.714242E-2	3.673486E-2
10/19/2017  17:43:20.971206	1.116534E+0	3.017961E-3	1.137250E-2	-1.012869E+1	2.732853E-2	2.963800E-2	6.442791E-2	3.927877E-2
10/19/2017  17:43:20.972206	-1.448342E+0	8.105642E-3	1.391770E-2	-1.014142E+1	3.242842E-2	2.963800E-2	6.951371E-2	2.147136E-2
10/19/2017  17:43:20.973206	-1.138218E+0	1.319332E-2	1.646291E-2	-1.014651E+1	1.712873E-2	6.742135E-3	7.459952E-2	1.892744E-2
10/19/2017  17:43:20.974206	-4.671308E-1	-2.069720E-3	1.900811E-2	-1.015160E+1	2.477858E-2	1.946206E-2	7.714242E-2	2.910311E-2
10/19/2017  17:43:20.975206	-1.466136E+0	1.064948E-2	1.900811E-2	-1.013632E+1	2.222863E-2	2.200605E-2	7.459952E-2	3.927877E-2
10/19/2017  17:43:20.976206	-2.419385E+0	1.319332E-2	1.137250E-2	-1.013632E+1	4.007827E-2	2.963800E-2	7.205661E-2	2.147136E-2
10/19/2017  17:43:20.977206	8.775860E-1	2.082484E-2	1.900811E-2	-1.014651E+1	2.477858E-2	2.709402E-2	7.205661E-2	2.910311E-2
10/19/2017  17:43:20.978206	2.428205E+0	1.319332E-2	2.409852E-2	-1.013632E+1	9.478889E-3	2.455003E-2	7.714242E-2	3.164702E-2
10/19/2017  17:43:20.979206	4.164389E+0	5.561801E-3	1.900811E-2	-1.011086E+1	1.967868E-2	1.437409E-2	7.459952E-2	3.673486E-2
10/19/2017  17:43:20.980206	4.311825E+0	1.064948E-2	2.409852E-2	-1.013123E+1	2.222863E-2	1.946206E-2	7.205661E-2	3.927877E-2
10/19/2017  17:43:20.981206	3.564765E-1	1.064948E-2	1.900811E-2	-1.011341E+1	1.967868E-2	2.709402E-2	6.951371E-2	2.401527E-2
10/19/2017  17:43:20.982206	-2.134681E+0	8.105642E-3	1.391770E-2	-1.014142E+1	1.712873E-2	1.946206E-2	7.205661E-2	2.401527E-2
10/19/2017  17:43:20.983206	-8.128425E-1	8.105642E-3	2.409852E-2	-1.014142E+1	1.457878E-2	1.437409E-2	7.205661E-2	3.927877E-2
10/19/2017  17:43:20.984206	-3.489566E+0	3.017961E-3	1.900811E-2	-1.013632E+1	2.732853E-2	1.437409E-2	6.951371E-2	3.164702E-2
10/19/2017  17:43:20.985206	-1.366998E+0	1.828100E-2	1.391770E-2	-1.014651E+1	2.732853E-2	2.455003E-2	7.459952E-2	2.401527E-2
10/19/2017  17:43:20.986206	2.504465E+0	1.828100E-2	2.155331E-2	-1.014142E+1	1.202884E-2	2.200605E-2	7.968532E-2	2.910311E-2
10/19/2017  17:43:20.987206	2.555304E+0	1.319332E-2	1.391770E-2	-1.012614E+1	2.477858E-2	1.691808E-2	7.968532E-2	3.419094E-2
10/19/2017  17:43:20.988206	3.772921E+0	1.573716E-2	2.664372E-2	-1.012614E+1	2.987847E-2	2.963800E-2	7.205661E-2	3.673486E-2
10/19/2017  17:43:20.989206	3.282316E+0	1.828100E-2	1.646291E-2	-1.013378E+1	1.967868E-2	2.963800E-2	7.968532E-2	2.401527E-2
10/19/2017  17:43:20.990206	9.818079E-1	1.064948E-2	2.155331E-2	-1.013632E+1	1.712873E-2	1.183011E-2	8.222822E-2	3.164702E-2
10/19/2017  17:43:20.991206	-1.989787E+0	1.064948E-2	1.646291E-2	-1.013887E+1	1.967868E-2	1.691808E-2	7.714242E-2	3.673486E-2
10/19/2017  17:43:20.992206	-2.864235E+0	8.105642E-3	1.137250E-2	-1.013887E+1	2.987847E-2	2.455003E-2	6.697081E-2	3.673486E-2
10/19/2017  17:43:20.993206	-2.310079E+0	3.354405E-2	1.646291E-2	-1.014142E+1	2.477858E-2	2.709402E-2	7.459952E-2	2.655919E-2
10/19/2017  17:43:20.994206	-2.477851E+0	1.573716E-2	2.409852E-2	-1.014651E+1	1.202884E-2	9.286120E-3	8.222822E-2	3.164702E-2
10/19/2017  17:43:20.995206	-2.617661E+0	4.741205E-4	1.900811E-2	-1.014142E+1	2.477858E-2	1.437409E-2	7.205661E-2	4.182269E-2
10/19/2017  17:43:20.996206	-3.151480E+0	8.105642E-3	1.391770E-2	-1.013887E+1	2.477858E-2	1.946206E-2	6.951371E-2	3.164702E-2
10/19/2017  17:43:20.997206	-2.094009E+0	2.082484E-2	1.646291E-2	-1.014142E+1	3.752832E-2	2.709402E-2	7.968532E-2	2.910311E-2
10/19/2017  17:43:20.998206	-2.383797E+0	1.573716E-2	2.918892E-2	-1.014396E+1	1.712873E-2	1.946206E-2	7.968532E-2	2.910311E-2
10/19/2017  17:43:20.999206	-3.984969E-1	5.561801E-3	1.646291E-2	-1.013378E+1	1.967868E-2	9.286120E-3	6.951371E-2	2.401527E-2
								
10/19/2017  17:43:21.000206	5.928822E-1	1.828100E-2	6.282096E-3	-1.015160E+1	2.732853E-2	1.437409E-2	6.697081E-2	3.164702E-2
10/19/2017  17:43:21.001206	2.682404E+0	2.082484E-2	2.155331E-2	-1.013887E+1	1.457878E-2	2.963800E-2	7.459952E-2	3.419094E-2
10/19/2017  17:43:21.002206	4.926988E+0	1.319332E-2	2.155331E-2	-1.013632E+1	1.202884E-2	1.183011E-2	7.714242E-2	3.673486E-2
10/19/2017  17:43:21.003206	5.010874E+0	5.561801E-3	1.391770E-2	-1.012869E+1	2.477858E-2	1.183011E-2	7.459952E-2	2.655919E-2
10/19/2017  17:43:21.004206	8.953800E-1	1.319332E-2	1.137250E-2	-1.015669E+1	2.987847E-2	9.286120E-3	8.222822E-2	2.910311E-2
10/19/2017  17:43:21.005206	-3.700552E+0	1.828100E-2	2.155331E-2	-1.014905E+1	1.712873E-2	1.946206E-2	7.205661E-2	3.164702E-2
10/19/2017  17:43:21.006206	-1.478846E+0	1.828100E-2	1.391770E-2	-1.014396E+1	1.712873E-2	1.946206E-2	6.951371E-2	3.164702E-2
10/19/2017  17:43:21.007206	-1.010831E-1	8.105642E-3	2.918892E-2	-1.014396E+1	2.477858E-2	1.691808E-2	7.205661E-2	2.910311E-2
10/19/2017  17:43:21.008206	-8.074715E-2	1.064948E-2	1.900811E-2	-1.013632E+1	2.222863E-2	1.946206E-2	6.442791E-2	2.655919E-2
10/19/2017  17:43:21.009206	-1.697171E-1	2.082484E-2	2.155331E-2	-1.013887E+1	1.202884E-2	2.200605E-2	7.968532E-2	3.164702E-2
10/19/2017  17:43:21.010206	2.980105E-1	1.064948E-2	2.155331E-2	-1.013378E+1	2.477858E-2	1.183011E-2	7.459952E-2	4.182269E-2
10/19/2017  17:43:21.011206	-4.010389E-1	1.573716E-2	1.391770E-2	-1.013632E+1	3.497837E-2	1.691808E-2	6.951371E-2	3.673486E-2
10/19/2017  17:43:21.012206	-2.729509E+0	8.105642E-3	2.155331E-2	-1.013887E+1	1.457878E-2	2.963800E-2	7.205661E-2	2.401527E-2
10/19/2017  17:43:21.013206	-9.780723E-1	1.319332E-2	2.409852E-2	-1.012869E+1	1.457878E-2	2.963800E-2	7.968532E-2	3.673486E-2
10/19/2017  17:43:21.014206	-4.925795E+0	3.017961E-3	1.137250E-2	-1.015669E+1	2.987847E-2	1.437409E-2	6.951371E-2	3.927877E-2
10/19/2017  17:43:21.015206	-4.915627E+0	1.319332E-2	1.900811E-2	-1.014651E+1	2.222863E-2	1.946206E-2	6.697081E-2	3.419094E-2
10/19/2017  17:43:21.016206	-6.425286E-1	1.828100E-2	1.391770E-2	-1.013887E+1	3.242842E-2	1.946206E-2	7.459952E-2	2.910311E-2
10/19/2017  17:43:21.017206	5.005790E+0	1.573716E-2	1.646291E-2	-1.013378E+1	2.222863E-2	1.437409E-2	7.205661E-2	2.910311E-2
10/19/2017  17:43:21.018206	5.003248E+0	1.573716E-2	2.155331E-2	-1.012359E+1	1.202884E-2	1.691808E-2	6.697081E-2	3.419094E-2
10/19/2017  17:43:21.019206	2.316357E+0	1.319332E-2	1.900811E-2	-1.012869E+1	1.967868E-2	2.200605E-2	6.951371E-2	2.910311E-2
10/19/2017  17:43:21.020206	2.379907E+0	1.064948E-2	1.900811E-2	-1.013632E+1	2.222863E-2	1.946206E-2	7.205661E-2	2.147136E-2
10/19/2017  17:43:21.021206	2.082493E+0	1.064948E-2	1.391770E-2	-1.013632E+1	2.222863E-2	2.455003E-2	7.459952E-2	3.673486E-2
10/19/2017  17:43:21.022206	-1.613572E+0	1.064948E-2	1.391770E-2	-1.014142E+1	1.712873E-2	1.946206E-2	7.205661E-2	2.655919E-2
10/19/2017  17:43:21.023206	-4.933421E+0	2.082484E-2	1.900811E-2	-1.014396E+1	1.967868E-2	2.709402E-2	7.968532E-2	2.401527E-2
10/19/2017  17:43:21.024206	-3.448894E+0	2.082484E-2	3.173413E-2	-1.014651E+1	1.967868E-2	2.455003E-2	7.205661E-2	3.164702E-2
10/19/2017  17:43:21.025206	-1.898276E+0	1.064948E-2	1.900811E-2	-1.013378E+1	2.732853E-2	2.200605E-2	6.188501E-2	3.673486E-2
10/19/2017  17:43:21.026206	3.463085E-1	1.064948E-2	1.137250E-2	-1.013887E+1	2.732853E-2	2.455003E-2	6.951371E-2	2.401527E-2
10/19/2017  17:43:21.027206	1.228382E+0	1.573716E-2	2.409852E-2	-1.013123E+1	1.712873E-2	2.200605E-2	8.985693E-2	3.164702E-2
10/19/2017  17:43:21.028206	1.449535E+0	1.064948E-2	2.664372E-2	-1.012869E+1	2.477858E-2	1.691808E-2	7.459952E-2	3.164702E-2
10/19/2017  17:43:21.029206	5.217063E-1	1.064948E-2	1.137250E-2	-1.013378E+1	2.477858E-2	1.946206E-2	6.697081E-2	2.910311E-2
10/19/2017  17:43:21.030206	9.233419E-1	1.064948E-2	1.900811E-2	-1.014651E+1	2.222863E-2	2.200605E-2	7.205661E-2	2.655919E-2
10/19/2017  17:43:21.031206	1.813041E+0	3.017961E-3	1.646291E-2	-1.014651E+1	2.477858E-2	1.946206E-2	7.714242E-2	2.910311E-2
10/19/2017  17:43:21.032206	2.761206E+0	1.319332E-2	1.646291E-2	-1.013632E+1	1.712873E-2	3.472597E-2	7.205661E-2	3.673486E-2
								
10/19/2017  17:43:21.033206	3.584814E+0	2.082484E-2	1.646291E-2	-1.013378E+1	2.477858E-2	2.455003E-2	7.459952E-2	2.147136E-2
10/19/2017  17:43:21.034206	-6.374446E-1	1.064948E-2	2.155331E-2	-1.014142E+1	1.712873E-2	1.946206E-2	7.968532E-2	2.147136E-2
10/19/2017  17:43:21.035206	-2.444805E+0	4.741205E-4	2.155331E-2	-1.013887E+1	2.222863E-2	1.946206E-2	7.205661E-2	3.927877E-2
10/19/2017  17:43:21.036206	-1.895734E+0	1.064948E-2	1.391770E-2	-1.013887E+1	1.967868E-2	1.946206E-2	6.697081E-2	3.164702E-2
10/19/2017  17:43:21.037206	-3.802232E+0	1.573716E-2	1.646291E-2	-1.014142E+1	1.457878E-2	1.946206E-2	7.714242E-2	1.892744E-2
10/19/2017  17:43:21.038206	-2.726967E+0	1.064948E-2	2.409852E-2	-1.014396E+1	1.967868E-2	1.946206E-2	6.951371E-2	3.419094E-2
10/19/2017  17:43:21.039206	-4.925508E-1	1.064948E-2	1.900811E-2	-1.013378E+1	1.457878E-2	1.691808E-2	6.951371E-2	1.892744E-2
10/19/2017  17:43:21.040206	1.238550E+0	1.064948E-2	6.282096E-3	-1.012869E+1	2.222863E-2	1.946206E-2	7.714242E-2	3.164702E-2
10/19/2017  17:43:21.041206	1.879133E+0	1.319332E-2	1.900811E-2	-1.013123E+1	2.477858E-2	1.946206E-2	7.714242E-2	3.927877E-2
10/19/2017  17:43:21.042206	1.482581E+0	1.064948E-2	3.427933E-2	-1.011341E+1	1.712873E-2	1.946206E-2	8.222822E-2	2.910311E-2
10/19/2017  17:43:21.043206	3.234305E-1	8.105642E-3	6.282096E-3	-1.012614E+1	1.967868E-2	1.183011E-2	7.459952E-2	3.164702E-2
10/19/2017  17:43:21.044206	7.631961E-1	1.828100E-2	1.391770E-2	-1.012105E+1	2.987847E-2	1.437409E-2	6.951371E-2	2.910311E-2
10/19/2017  17:43:21.045206	9.436779E-1	1.319332E-2	2.664372E-2	-1.014142E+1	2.222863E-2	2.963800E-2	7.459952E-2	3.164702E-2
10/19/2017  17:43:21.046206	-1.849691E-1	1.064948E-2	1.900811E-2	-1.013378E+1	1.457878E-2	2.200605E-2	9.239983E-2	3.164702E-2
10/19/2017  17:43:21.047206	-2.096551E+0	1.319332E-2	1.646291E-2	-1.013123E+1	2.222863E-2	1.691808E-2	7.459952E-2	2.910311E-2
10/19/2017  17:43:21.048206	-1.189058E+0	8.105642E-3	1.391770E-2	-1.013887E+1	2.477858E-2	1.946206E-2	6.442791E-2	3.164702E-2
10/19/2017  17:43:21.049206	-6.041116E-2	1.319332E-2	6.282096E-3	-1.014396E+1	1.457878E-2	2.709402E-2	7.205661E-2	3.673486E-2
10/19/2017  17:43:21.050206	-1.204310E+0	1.319332E-2	2.155331E-2	-1.013887E+1	2.222863E-2	1.183011E-2	8.222822E-2	3.419094E-2
10/19/2017  17:43:21.051206	-1.428006E+0	5.561801E-3	1.137250E-2	-1.013632E+1	2.477858E-2	2.709402E-2	6.951371E-2	2.910311E-2
10/19/2017  17:43:21.052206	-5.713527E-1	1.828100E-2	1.137250E-2	-1.014651E+1	2.222863E-2	2.455003E-2	6.697081E-2	2.401527E-2
10/19/2017  17:43:21.053206	1.058068E+0	1.319332E-2	2.409852E-2	-1.013632E+1	1.457878E-2	2.963800E-2	7.968532E-2	2.910311E-2
10/19/2017  17:43:21.054206	3.269606E+0	2.591253E-2	1.646291E-2	-1.012869E+1	2.987847E-2	1.437409E-2	7.714242E-2	3.927877E-2
10/19/2017  17:43:21.055206	4.731255E+0	1.319332E-2	1.391770E-2	-1.012869E+1	2.732853E-2	1.946206E-2	6.697081E-2	2.655919E-2
10/19/2017  17:43:21.056206	1.251260E+0	1.573716E-2	1.900811E-2	-1.013123E+1	1.967868E-2	2.709402E-2	7.714242E-2	1.638352E-2
10/19/2017  17:43:21.057206	-8.535144E-1	5.561801E-3	2.155331E-2	-1.012869E+1	1.457878E-2	1.691808E-2	7.714242E-2	3.673486E-2
10/19/2017  17:43:21.058206	1.604597E+0	8.105642E-3	1.137250E-2	-1.013123E+1	3.752832E-2	1.691808E-2	7.459952E-2	3.673486E-2
10/19/2017  17:43:21.059206	-2.716799E+0	1.828100E-2	8.827299E-3	-1.013887E+1	2.987847E-2	2.709402E-2	7.459952E-2	2.655919E-2
10/19/2017  17:43:21.060206	-4.183531E+0	1.319332E-2	2.155331E-2	-1.014396E+1	1.457878E-2	2.200605E-2	7.714242E-2	2.401527E-2
10/19/2017  17:43:21.061206	-1.186516E+0	8.105642E-3	1.391770E-2	-1.013632E+1	1.967868E-2	1.437409E-2	7.459952E-2	3.419094E-2
10/19/2017  17:43:21.062206	1.393612E+0	1.064948E-2	1.137250E-2	-1.013887E+1	2.987847E-2	2.455003E-2	6.951371E-2	4.182269E-2
10/19/2017  17:43:21.063206	-9.345713E-2	1.828100E-2	1.900811E-2	-1.011341E+1	1.967868E-2	2.963800E-2	7.714242E-2	2.147136E-2
10/19/2017  17:43:21.064206	-3.959549E-1	2.082484E-2	2.155331E-2	-1.013632E+1	1.712873E-2	1.946206E-2	7.714242E-2	2.910311E-2
10/19/2017  17:43:21.065206	6.564322E-1	3.017961E-3	2.155331E-2	-1.012105E+1	1.967868E-2	1.437409E-2	7.205661E-2	2.910311E-2
								
10/19/2017  17:43:21.066206	2.093276E-2	3.017961E-3	1.191689E-3	-1.013632E+1	2.477858E-2	1.946206E-2	7.205661E-2	2.655919E-2
10/19/2017  17:43:21.067206	6.030502E-1	2.082484E-2	2.155331E-2	-1.014142E+1	1.457878E-2	2.709402E-2	6.951371E-2	2.910311E-2
10/19/2017  17:43:21.068206	1.614765E+0	1.828100E-2	3.427933E-2	-1.013887E+1	1.712873E-2	2.455003E-2	8.222822E-2	3.164702E-2
10/19/2017  17:43:21.069206	6.055922E-1	3.017961E-3	1.900811E-2	-1.013123E+1	1.712873E-2	1.437409E-2	6.442791E-2	3.419094E-2
10/19/2017  17:43:21.070206	-2.302453E+0	1.064948E-2	6.282096E-3	-1.013632E+1	2.222863E-2	1.946206E-2	6.951371E-2	2.401527E-2
10/19/2017  17:43:21.071206	-4.478403E+0	2.591253E-2	1.646291E-2	-1.015160E+1	2.477858E-2	2.963800E-2	7.459952E-2	2.655919E-2
10/19/2017  17:43:21.072206	-2.787975E+0	1.064948E-2	2.664372E-2	-1.014396E+1	1.712873E-2	3.981394E-2	7.968532E-2	3.673486E-2
10/19/2017  17:43:21.073206	-8.560564E-1	1.319332E-2	1.900811E-2	-1.012105E+1	2.222863E-2	1.183011E-2	6.697081E-2	3.164702E-2
10/19/2017  17:43:21.074206	3.895224E-1	1.828100E-2	1.137250E-2	-1.013887E+1	2.732853E-2	1.183011E-2	6.697081E-2	1.638352E-2
10/19/2017  17:43:21.075206	6.843942E-1	5.561801E-3	2.409852E-2	-1.015669E+1	1.457878E-2	2.963800E-2	8.477112E-2	2.147136E-2
10/19/2017  17:43:21.076206	1.561383E+0	8.105642E-3	2.664372E-2	-1.013123E+1	1.457878E-2	1.183011E-2	8.222822E-2	4.436661E-2
10/19/2017  17:43:21.077206	-7.057916E-2	8.105642E-3	1.900811E-2	-1.013123E+1	3.242842E-2	1.946206E-2	7.968532E-2	2.910311E-2
10/19/2017  17:43:21.078206	2.031653E+0	1.573716E-2	1.137250E-2	-1.014142E+1	2.732853E-2	2.200605E-2	6.951371E-2	3.164702E-2
10/19/2017  17:43:21.079206	1.098740E+0	1.064948E-2	1.900811E-2	-1.013632E+1	1.202884E-2	2.200605E-2	7.459952E-2	3.673486E-2
10/19/2017  17:43:21.080206	-3.865782E+0	1.828100E-2	2.409852E-2	-1.014905E+1	1.967868E-2	1.437409E-2	7.968532E-2	3.673486E-2
10/19/2017  17:43:21.081206	-3.385344E+0	1.573716E-2	2.155331E-2	-1.014396E+1	2.477858E-2	2.200605E-2	7.459952E-2	3.927877E-2
10/19/2017  17:43:21.082206	4.276524E-1	1.064948E-2	1.646291E-2	-1.011850E+1	1.967868E-2	2.455003E-2	7.205661E-2	2.655919E-2
10/19/2017  17:43:21.083206	2.552762E+0	1.064948E-2	1.646291E-2	-1.013123E+1	2.477858E-2	2.200605E-2	7.968532E-2	2.147136E-2
10/19/2017  17:43:21.084206	5.005790E+0	8.105642E-3	1.646291E-2	-1.013632E+1	2.477858E-2	1.183011E-2	7.205661E-2	3.673486E-2
10/19/2017  17:43:21.085206	4.789720E+0	1.319332E-2	1.646291E-2	-1.012614E+1	2.987847E-2	1.946206E-2	6.951371E-2	3.164702E-2
10/19/2017  17:43:21.086206	2.285853E+0	1.828100E-2	1.900811E-2	-1.013887E+1	2.222863E-2	2.963800E-2	6.697081E-2	2.655919E-2
10/19/2017  17:43:21.087206	1.721529E+0	1.319332E-2	1.391770E-2	-1.014142E+1	1.202884E-2	1.946206E-2	7.968532E-2	2.910311E-2
10/19/2017  17:43:21.088206	-2.726967E+0	1.064948E-2	1.900811E-2	-1.013632E+1	2.222863E-2	1.691808E-2	7.968532E-2	3.927877E-2
10/19/2017  17:43:21.089206	-4.880039E+0	1.573716E-2	2.155331E-2	-1.014651E+1	2.987847E-2	2.963800E-2	6.697081E-2	3.164702E-2
10/19/2017  17:43:21.090206	-6.425286E-1	2.591253E-2	1.646291E-2	-1.014396E+1	2.477858E-2	2.709402E-2	7.459952E-2	2.401527E-2
10/19/2017  17:43:21.091206	5.010874E+0	1.064948E-2	2.409852E-2	-1.013378E+1	2.222863E-2	2.709402E-2	7.968532E-2	3.419094E-2
10/19/2017  17:43:21.092206	2.501923E+0	4.741205E-4	1.900811E-2	-1.012869E+1	1.712873E-2	1.437409E-2	7.205661E-2	3.673486E-2
10/19/2017  17:43:21.093206	-7.416665E-1	1.828100E-2	1.137250E-2	-1.013123E+1	2.222863E-2	1.946206E-2	7.205661E-2	2.655919E-2
10/19/2017  17:43:21.094206	1.266512E+0	2.845637E-2	1.646291E-2	-1.014396E+1	2.477858E-2	2.455003E-2	7.714242E-2	2.910311E-2
10/19/2017  17:43:21.095206	3.244186E+0	1.828100E-2	1.646291E-2	-1.014651E+1	1.457878E-2	1.946206E-2	7.968532E-2	3.164702E-2
10/19/2017  17:43:21.096206	-4.089478E+0	-1.224508E-2	1.900811E-2	-1.012869E+1	9.478889E-3	1.437409E-2	7.205661E-2	3.673486E-2
10/19/2017  17:43:21.097206	-4.938505E+0	1.319332E-2	8.827299E-3	-1.014905E+1	2.987847E-2	1.946206E-2	7.459952E-2	3.164702E-2
10/19/2017  17:43:21.098206	-4.943589E+0	1.319332E-2	1.900811E-2	-1.015160E+1	2.477858E-2	2.200605E-2	7.205661E-2	3.419094E-2
								
10/19/2017  17:43:21.099206	-6.272767E-1	1.064948E-2	1.646291E-2	-1.013378E+1	1.967868E-2	2.709402E-2	7.205661E-2	3.164702E-2
10/19/2017  17:43:21.100206	8.648760E-1	8.105642E-3	1.646291E-2	-1.013632E+1	1.712873E-2	1.946206E-2	7.968532E-2	4.182269E-2
10/19/2017  17:43:21.101206	-9.526524E-1	2.082484E-2	6.282096E-3	-1.014396E+1	2.732853E-2	2.709402E-2	6.442791E-2	2.401527E-2
10/19/2017  17:43:21.102206	2.989986E+0	1.573716E-2	2.409852E-2	-1.013887E+1	1.457878E-2	2.963800E-2	8.222822E-2	4.436661E-2
10/19/2017  17:43:21.103206	4.990538E+0	3.017961E-3	2.155331E-2	-1.012614E+1	1.712873E-2	1.691808E-2	7.205661E-2	3.673486E-2
10/19/2017  17:43:21.104206	1.225840E+0	1.573716E-2	8.827299E-3	-1.013632E+1	2.477858E-2	1.437409E-2	6.697081E-2	2.910311E-2
10/19/2017  17:43:21.105206	-1.977077E+0	1.828100E-2	1.646291E-2	-1.016433E+1	2.222863E-2	1.946206E-2	6.951371E-2	2.655919E-2
10/19/2017  17:43:21.106206	-2.635455E+0	5.561801E-3	2.155331E-2	-1.014396E+1	2.477858E-2	1.946206E-2	7.459952E-2	2.910311E-2
10/19/2017  17:43:21.107206	-1.748298E+0	1.573716E-2	1.900811E-2	-1.014142E+1	2.477858E-2	2.963800E-2	7.714242E-2	3.164702E-2
10/19/2017  17:43:21.108206	-1.010831E-1	1.064948E-2	1.900811E-2	-1.013632E+1	2.222863E-2	2.963800E-2	7.205661E-2	2.401527E-2
10/19/2017  17:43:21.109206	2.547966E-1	5.561801E-3	2.155331E-2	-1.013632E+1	1.457878E-2	1.946206E-2	8.222822E-2	3.164702E-2
10/19/2017  17:43:21.110206	5.903402E-1	5.561801E-3	1.646291E-2	-1.012614E+1	1.457878E-2	1.437409E-2	7.459952E-2	3.673486E-2
10/19/2017  17:43:21.111206	4.126874E-2	2.082484E-2	1.137250E-2	-1.013887E+1	2.732853E-2	1.946206E-2	6.951371E-2	2.401527E-2
10/19/2017  17:43:21.112206	-2.053050E-1	2.336868E-2	2.155331E-2	-1.014142E+1	2.222863E-2	3.981394E-2	8.222822E-2	2.655919E-2
10/19/2017  17:43:21.113206	4.812598E+0	1.828100E-2	1.646291E-2	-1.012359E+1	1.712873E-2	2.200605E-2	6.951371E-2	3.673486E-2
10/19/2017  17:43:21.114206	5.010874E+0	1.319332E-2	6.282096E-3	-1.013378E+1	2.732853E-2	4.198150E-3	6.951371E-2	2.147136E-2
10/19/2017  17:43:21.115206	2.870512E+0	1.573716E-2	1.646291E-2	-1.014396E+1	2.477858E-2	2.709402E-2	7.205661E-2	2.910311E-2
10/19/2017  17:43:21.116206	-2.503271E+0	1.319332E-2	2.664372E-2	-1.013632E+1	1.202884E-2	1.691808E-2	7.714242E-2	3.164702E-2
10/19/2017  17:43:21.117206	-2.106719E+0	1.064948E-2	1.900811E-2	-1.015669E+1	3.242842E-2	1.437409E-2	7.459952E-2	2.655919E-2
10/19/2017  17:43:21.118206	-2.510610E-1	1.319332E-2	1.137250E-2	-1.014142E+1	2.222863E-2	1.691808E-2	7.459952E-2	2.401527E-2
10/19/2017  17:43:21.119206	-1.006034E+0	1.573716E-2	1.900811E-2	-1.013887E+1	2.732853E-2	2.455003E-2	7.968532E-2	3.419094E-2
10/19/2017  17:43:21.120206	-1.265318E+0	5.561801E-3	2.155331E-2	-1.012105E+1	1.967868E-2	1.691808E-2	7.205661E-2	3.673486E-2
10/19/2017  17:43:21.121206	-1.855062E+0	1.573716E-2	8.827299E-3	-1.014142E+1	2.732853E-2	1.946206E-2	6.951371E-2	1.638352E-2
10/19/2017  17:43:21.122206	-1.331410E+0	1.319332E-2	2.918892E-2	-1.013887E+1	1.712873E-2	2.963800E-2	7.714242E-2	2.655919E-2
10/19/2017  17:43:21.123206	-3.654509E-1	1.064948E-2	2.155331E-2	-1.013887E+1	2.222863E-2	2.200605E-2	7.968532E-2	2.147136E-2
10/19/2017  17:43:21.124206	1.200707E-1	1.573716E-2	1.900811E-2	-1.012869E+1	2.222863E-2	2.200605E-2	6.951371E-2	3.419094E-2
10/19/2017  17:43:21.125206	7.148981E-1	1.064948E-2	2.155331E-2	-1.013887E+1	2.477858E-2	2.455003E-2	7.459952E-2	2.655919E-2
10/19/2017  17:43:21.126206	3.615605E-1	1.064948E-2	1.646291E-2	-1.013887E+1	2.477858E-2	2.200605E-2	8.222822E-2	3.419094E-2
10/19/2017  17:43:21.127206	1.358024E+0	5.561801E-3	1.137250E-2	-1.013123E+1	1.712873E-2	9.286120E-3	7.459952E-2	3.673486E-2
10/19/2017  17:43:21.128206	2.141246E-1	1.828100E-2	1.137250E-2	-1.013632E+1	2.987847E-2	1.946206E-2	6.951371E-2	3.164702E-2
10/19/2017  17:43:21.129206	-1.140760E+0	2.082484E-2	3.427933E-2	-1.013887E+1	1.712873E-2	3.726996E-2	7.459952E-2	2.910311E-2
10/19/2017  17:43:21.130206	-1.928779E+0	1.319332E-2	2.409852E-2	-1.013887E+1	1.457878E-2	1.946206E-2	7.968532E-2	2.910311E-2
10/19/2017  17:43:21.131206	-1.590694E+0	8.105642E-3	1.646291E-2	-1.013632E+1	3.242842E-2	1.183011E-2	6.951371E-2	3.673486E-2
								
10/19/2017  17:43:21.132206	-1.824558E+0	4.741205E-4	1.391770E-2	-1.014905E+1	2.477858E-2	1.946206E-2	6.697081E-2	2.655919E-2
10/19/2017  17:43:21.133206	-1.209394E+0	1.828100E-2	1.900811E-2	-1.013887E+1	1.967868E-2	9.286120E-3	7.459952E-2	1.638352E-2
10/19/2017  17:43:21.134206	-4.722148E-1	1.064948E-2	2.664372E-2	-1.012614E+1	1.712873E-2	1.437409E-2	7.968532E-2	3.673486E-2
10/19/2017  17:43:21.135206	-1.733046E+0	8.105642E-3	2.409852E-2	-1.013887E+1	2.477858E-2	1.437409E-2	6.951371E-2	2.910311E-2
10/19/2017  17:43:21.136206	-1.356830E+0	-2.069720E-3	1.646291E-2	-1.013887E+1	1.712873E-2	1.946206E-2	6.951371E-2	2.655919E-2
10/19/2017  17:43:21.137206	3.110075E-2	1.064948E-2	1.646291E-2	-1.013632E+1	1.967868E-2	2.709402E-2	8.222822E-2	2.401527E-2
10/19/2017  17:43:21.138206	-7.340406E-1	5.561801E-3	2.664372E-2	-1.012105E+1	1.712873E-2	1.183011E-2	7.459952E-2	3.673486E-2
10/19/2017  17:43:21.139206	-2.078470E-1	8.105642E-3	1.646291E-2	-1.011850E+1	1.967868E-2	1.946206E-2	7.968532E-2	2.910311E-2
10/19/2017  17:43:21.140206	2.240097E+0	1.573716E-2	1.646291E-2	-1.013378E+1	6.928941E-3	2.455003E-2	6.697081E-2	1.638352E-2
10/19/2017  17:43:21.141206	4.977828E+0	1.573716E-2	1.900811E-2	-1.013632E+1	1.967868E-2	1.946206E-2	6.697081E-2	3.419094E-2
10/19/2017  17:43:21.142206	4.998164E+0	8.105642E-3	2.409852E-2	-1.012869E+1	2.477858E-2	1.946206E-2	7.205661E-2	4.182269E-2
10/19/2017  17:43:21.143206	2.888306E+0	1.064948E-2	2.155331E-2	-1.011341E+1	2.222863E-2	2.200605E-2	7.459952E-2	2.910311E-2
10/19/2017  17:43:21.144206	-9.091514E-2	1.573716E-2	1.900811E-2	-1.013887E+1	1.712873E-2	1.946206E-2	7.459952E-2	1.638352E-2
10/19/2017  17:43:21.145206	-2.022833E+0	1.828100E-2	2.664372E-2	-1.014651E+1	1.457878E-2	3.472597E-2	8.222822E-2	2.910311E-2
10/19/2017  17:43:21.146206	-7.009946E-1	5.561801E-3	1.646291E-2	-1.013632E+1	9.478889E-3	1.946206E-2	8.222822E-2	3.673486E-2
10/19/2017  17:43:21.147206	3.322988E+0	1.319332E-2	1.137250E-2	-1.012869E+1	2.477858E-2	2.455003E-2	7.459952E-2	3.164702E-2
10/19/2017  17:43:21.148206	6.157602E-1	1.319332E-2	1.900811E-2	-1.012869E+1	2.222863E-2	2.963800E-2	7.205661E-2	2.401527E-2
10/19/2017  17:43:21.149206	-1.557648E+0	8.105642E-3	1.646291E-2	-1.013887E+1	1.202884E-2	2.709402E-2	7.968532E-2	3.164702E-2
10/19/2017  17:43:21.150206	-4.864787E+0	1.319332E-2	6.282096E-3	-1.014905E+1	1.457878E-2	9.286120E-3	7.968532E-2	3.419094E-2
10/19/2017  17:43:21.151206	-4.768191E+0	4.741205E-4	1.137250E-2	-1.014651E+1	3.242842E-2	1.183011E-2	6.442791E-2	3.164702E-2
10/19/2017  17:43:21.152206	-4.969009E+0	1.828100E-2	1.646291E-2	-1.015924E+1	2.477858E-2	3.218199E-2	7.205661E-2	2.655919E-2
10/19/2017  17:43:21.153206	-1.095004E+0	3.017961E-3	2.664372E-2	-1.012869E+1	9.478889E-3	2.200605E-2	8.222822E-2	2.655919E-2
10/19/2017  17:43:21.154206	3.666157E+0	5.561801E-3	1.900811E-2	-1.013123E+1	2.222863E-2	4.198150E-3	7.459952E-2	3.164702E-2
10/19/2017  17:43:21.155206	5.010874E+0	3.863173E-2	1.391770E-2	-1.013632E+1	2.477858E-2	2.963800E-2	6.442791E-2	3.164702E-2
10/19/2017  17:43:21.156206	4.400795E+0	1.573716E-2	1.900811E-2	-1.012105E+1	1.967868E-2	1.946206E-2	7.459952E-2	3.164702E-2
10/19/2017  17:43:21.157206	9.640139E-1	1.319332E-2	1.137250E-2	-1.013632E+1	2.987847E-2	2.200605E-2	7.205661E-2	3.164702E-2
10/19/2017  17:43:21.158206	-7.340406E-1	1.319332E-2	2.409852E-2	-1.013887E+1	2.222863E-2	1.691808E-2	6.442791E-2	3.164702E-2
10/19/2017  17:43:21.159206	-8.458885E-1	1.828100E-2	1.391770E-2	-1.014651E+1	1.202884E-2	2.455003E-2	6.951371E-2	1.638352E-2
10/19/2017  17:43:21.160206	-3.781609E-1	1.319332E-2	2.409852E-2	-1.012614E+1	1.457878E-2	2.455003E-2	8.222822E-2	3.164702E-2
10/19/2017  17:43:21.161206	-1.173806E+0	5.561801E-3	1.646291E-2	-1.013378E+1	1.967868E-2	1.183011E-2	7.205661E-2	3.927877E-2
10/19/2017  17:43:21.162206	1.393612E+0	1.064948E-2	1.391770E-2	-1.013887E+1	2.732853E-2	2.455003E-2	6.951371E-2	2.401527E-2
10/19/2017  17:43:21.163206	3.017948E+0	1.573716E-2	2.918892E-2	-1.014142E+1	1.457878E-2	2.709402E-2	7.968532E-2	1.383961E-2
10/19/2017  17:43:21.164206	2.207051E+0	1.319332E-2	2.155331E-2	-1.015415E+1	2.477858E-2	1.183011E-2	8.222822E-2	3.419094E-2
								
10/19/2017  17:43:21.165206	9.462199E-1	1.828100E-2	2.409852E-2	-1.012614E+1	2.222863E-2	1.946206E-2	7.459952E-2	3.164702E-2
10/19/2017  17:43:21.166206	8.648760E-1	1.064948E-2	1.900811E-2	-1.013632E+1	2.477858E-2	3.218199E-2	7.968532E-2	3.164702E-2
10/19/2017  17:43:21.167206	-1.026370E+0	1.828100E-2	1.391770E-2	-1.013887E+1	1.967868E-2	2.709402E-2	7.205661E-2	3.164702E-2
10/19/2017  17:43:21.168206	-2.983709E+0	8.105642E-3	2.664372E-2	-1.014142E+1	1.457878E-2	1.946206E-2	6.951371E-2	3.419094E-2
10/19/2017  17:43:21.169206	-2.615119E+0	5.561801E-3	1.137250E-2	-1.013632E+1	1.712873E-2	2.455003E-2	6.951371E-2	3.419094E-2
10/19/2017  17:43:21.170206	-8.328914E-2	1.319332E-2	1.391770E-2	-1.013378E+1	2.987847E-2	2.455003E-2	6.697081E-2	2.401527E-2
10/19/2017  17:43:21.171206	1.668147E+0	1.828100E-2	1.646291E-2	-1.013887E+1	6.928941E-3	2.200605E-2	8.222822E-2	2.655919E-2
10/19/2017  17:43:21.172206	7.911581E-1	3.017961E-3	2.409852E-2	-1.012869E+1	1.202884E-2	1.437409E-2	7.968532E-2	3.927877E-2
10/19/2017  17:43:21.173206	5.267903E-1	8.105642E-3	1.391770E-2	-1.012105E+1	2.987847E-2	1.654165E-3	6.697081E-2	2.910311E-2
10/19/2017  17:43:21.174206	-1.158554E+0	3.354405E-2	1.391770E-2	-1.013378E+1	2.732853E-2	2.709402E-2	7.459952E-2	2.655919E-2
10/19/2017  17:43:21.175206	-9.933243E-1	1.573716E-2	2.664372E-2	-1.013887E+1	1.457878E-2	2.455003E-2	7.968532E-2	3.673486E-2
10/19/2017  17:43:21.176206	-3.298629E-1	8.105642E-3	1.137250E-2	-1.013887E+1	1.457878E-2	1.183011E-2	7.459952E-2	3.419094E-2
10/19/2017  17:43:21.177206	1.096198E+0	1.064948E-2	1.137250E-2	-1.013123E+1	2.732853E-2	1.946206E-2	6.951371E-2	2.910311E-2
10/19/2017  17:43:21.178206	2.504465E+0	2.082484E-2	1.900811E-2	-1.012869E+1	3.497837E-2	1.691808E-2	7.205661E-2	2.655919E-2
10/19/2017  17:43:21.179206	3.511096E+0	1.064948E-2	2.664372E-2	-1.013632E+1	1.457878E-2	2.709402E-2	7.205661E-2	3.673486E-2
10/19/2017  17:43:21.180206	-1.832184E+0	1.064948E-2	1.137250E-2	-1.013378E+1	2.222863E-2	1.946206E-2	6.951371E-2	2.147136E-2
10/19/2017  17:43:21.181206	-1.921153E+0	1.828100E-2	8.827299E-3	-1.015669E+1	1.967868E-2	2.455003E-2	6.951371E-2	2.655919E-2
10/19/2017  17:43:21.182206	-2.180437E+0	1.064948E-2	2.664372E-2	-1.013632E+1	1.202884E-2	1.691808E-2	7.968532E-2	4.436661E-2
10/19/2017  17:43:21.183206	-1.933863E+0	1.064948E-2	1.137250E-2	-1.012105E+1	2.987847E-2	2.963800E-2	7.714242E-2	2.401527E-2
10/19/2017  17:43:21.184206	1.182626E+0	2.082484E-2	1.900811E-2	-1.014396E+1	2.477858E-2	2.963800E-2	8.222822E-2	2.401527E-2
10/19/2017  17:43:21.185206	-5.967727E-1	1.064948E-2	1.391770E-2	-1.014142E+1	1.712873E-2	6.742135E-3	7.459952E-2	3.927877E-2
10/19/2017  17:43:21.186206	-1.430548E+0	4.741205E-4	1.646291E-2	-1.013378E+1	1.967868E-2	2.200605E-2	7.205661E-2	3.164702E-2
10/19/2017  17:43:21.187206	1.147038E+0	1.828100E-2	8.827299E-3	-1.014396E+1	2.732853E-2	2.963800E-2	7.968532E-2	2.147136E-2
10/19/2017  17:43:21.188206	4.774468E+0	1.828100E-2	1.900811E-2	-1.013632E+1	1.967868E-2	1.946206E-2	7.968532E-2	3.164702E-2
10/19/2017  17:43:21.189206	4.138969E+0	-2.069720E-3	1.391770E-2	-1.013378E+1	1.712873E-2	1.691808E-2	6.697081E-2	3.673486E-2
10/19/2017  17:43:21.190206	-3.476569E-1	1.319332E-2	1.191689E-3	-1.013632E+1	1.712873E-2	9.286120E-3	6.951371E-2	2.147136E-2
10/19/2017  17:43:21.191206	-4.953757E+0	2.082484E-2	1.900811E-2	-1.015415E+1	2.477858E-2	2.455003E-2	7.459952E-2	2.655919E-2
10/19/2017  17:43:21.192206	-4.920711E+0	1.064948E-2	2.918892E-2	-1.014651E+1	1.712873E-2	2.709402E-2	7.968532E-2	3.927877E-2
10/19/2017  17:43:21.193206	9.792659E-1	4.741205E-4	1.900811E-2	-1.014142E+1	2.477858E-2	1.946206E-2	7.459952E-2	3.164702E-2
10/19/2017  17:43:21.194206	1.553757E+0	1.319332E-2	1.900811E-2	-1.013632E+1	2.222863E-2	2.455003E-2	7.459952E-2	1.892744E-2
10/19/2017  17:43:21.195206	4.690583E+0	3.100021E-2	2.155331E-2	-1.013887E+1	2.477858E-2	1.946206E-2	8.222822E-2	3.673486E-2
10/19/2017  17:43:21.196206	2.036737E+0	5.561801E-3	2.409852E-2	-1.012614E+1	1.712873E-2	1.691808E-2	7.459952E-2	4.182269E-2
10/19/2017  17:43:21.197206	-1.333952E+0	1.064948E-2	1.137250E-2	-1.012614E+1	1.967868E-2	1.691808E-2	6.697081E-2	2.655919E-2
								
10/19/2017  17:43:21.198206	-1.669496E+0	1.828100E-2	1.391770E-2	-1.014651E+1	2.732853E-2	2.709402E-2	6.951371E-2	2.147136E-2
10/19/2017  17:43:21.199206	-2.053050E-1	1.319332E-2	1.391770E-2	-1.014142E+1	1.967868E-2	2.200605E-2	7.205661E-2	2.655919E-2
10/19/2017  17:43:21.200206	2.093276E-2	1.319332E-2	2.155331E-2	-1.012614E+1	2.222863E-2	1.691808E-2	7.714242E-2	3.927877E-2
10/19/2017  17:43:21.201206	-3.984969E-1	1.319332E-2	1.137250E-2	-1.014142E+1	2.732853E-2	1.946206E-2	7.205661E-2	3.673486E-2
10/19/2017  17:43:21.202206	-5.332227E-1	1.828100E-2	1.900811E-2	-1.014905E+1	2.222863E-2	2.455003E-2	7.205661E-2	2.401527E-2
10/19/2017  17:43:21.203206	-1.951370E-1	8.105642E-3	2.664372E-2	-1.013632E+1	1.457878E-2	2.455003E-2	8.222822E-2	3.164702E-2
10/19/2017  17:43:21.204206	5.242483E-1	5.561801E-3	1.646291E-2	-1.012869E+1	2.222863E-2	9.286120E-3	7.968532E-2	3.673486E-2
10/19/2017  17:43:21.205206	5.267903E-1	1.064948E-2	1.900811E-2	-1.014905E+1	2.987847E-2	2.200605E-2	6.697081E-2	2.655919E-2
10/19/2017  17:43:21.206206	3.361405E-1	2.082484E-2	2.409852E-2	-1.013887E+1	1.457878E-2	2.455003E-2	7.205661E-2	3.164702E-2
10/19/2017  17:43:21.207206	-1.976790E-1	5.561801E-3	8.827299E-3	-1.012869E+1	1.967868E-2	9.286120E-3	7.205661E-2	3.419094E-2
10/19/2017  17:43:21.208206	-5.052608E-1	1.064948E-2	1.646291E-2	-1.013887E+1	1.967868E-2	1.946206E-2	7.968532E-2	3.164702E-2
10/19/2017  17:43:21.209206	-8.128425E-1	1.319332E-2	6.282096E-3	-1.013632E+1	1.712873E-2	2.963800E-2	7.459952E-2	3.164702E-2
10/19/2017  17:43:21.210206	-1.519231E-1	5.561801E-3	1.900811E-2	-1.013378E+1	1.967868E-2	1.183011E-2	7.459952E-2	3.673486E-2
10/19/2017  17:43:21.211206	8.448270E-2	1.319332E-2	6.282096E-3	-1.013887E+1	3.497837E-2	9.286120E-3	6.951371E-2	2.147136E-2
10/19/2017  17:43:21.212206	-1.262776E+0	8.105642E-3	2.409852E-2	-1.014651E+1	1.712873E-2	2.455003E-2	7.968532E-2	3.419094E-2
10/19/2017  17:43:21.213206	4.022324E-1	5.561801E-3	1.900811E-2	-1.012869E+1	2.477858E-2	2.963800E-2	7.459952E-2	3.673486E-2
10/19/2017  17:43:21.214206	5.445843E-1	2.845637E-2	1.137250E-2	-1.013887E+1	1.457878E-2	1.691808E-2	7.459952E-2	3.419094E-2
10/19/2017  17:43:21.215206	3.455172E+0	1.319332E-2	1.900811E-2	-1.013887E+1	1.967868E-2	1.946206E-2	7.205661E-2	2.910311E-2
10/19/2017  17:43:21.216206	5.005790E+0	-4.613560E-3	1.900811E-2	-1.012869E+1	1.457878E-2	1.691808E-2	6.951371E-2	3.419094E-2
10/19/2017  17:43:21.217206	5.000706E+0	1.319332E-2	1.137250E-2	-1.013632E+1	2.732853E-2	1.946206E-2	6.951371E-2	2.655919E-2
10/19/2017  17:43:21.218206	2.268059E+0	1.828100E-2	2.155331E-2	-1.014396E+1	2.732853E-2	2.963800E-2	8.731403E-2	3.164702E-2
10/19/2017  17:43:21.219206	-2.012665E+0	8.105642E-3	1.900811E-2	-1.014142E+1	1.967868E-2	1.691808E-2	7.205661E-2	3.927877E-2
10/19/2017  17:43:21.220206	-2.655791E+0	1.064948E-2	2.155331E-2	-1.014651E+1	1.712873E-2	1.946206E-2	6.697081E-2	1.892744E-2
10/19/2017  17:43:21.221206	-2.582073E+0	1.319332E-2	8.827299E-3	-1.013887E+1	1.967868E-2	1.946206E-2	7.459952E-2	2.910311E-2
10/19/2017  17:43:21.222206	-2.447347E+0	8.105642E-3	1.646291E-2	-1.014142E+1	1.967868E-2	9.286120E-3	7.459952E-2	5.199836E-2
